1,-1.1009,-1.1363,-0.2697,-0.28739,-0.25201,-0.21664,-0.18127,-0.16359,-0.092842,-0.11053,-0.18127,-0.21664,-0.21664,-0.23433,-0.21664,-0.1459,-0.075157,-0.039785,-0.092842,-0.092842,-0.075157,-0.057471,-0.075157,-0.12821,-0.1459,-0.1459,-0.16359,-0.18127,-0.1459,-0.12821,-0.12821,-0.11053,-0.057471,-0.039785,-0.039785,-0.057471,-0.075157,-0.075157,-0.057471,-0.0044134,0.013272,0.013272,0.030958,0.030958,-0.022099,-0.075157,-0.092842,-0.092842,-0.057471,-0.057471,-0.11053,-0.12821,-0.057471,-0.039785,-0.022099,0.013272,0.030958,-0.0044134,-0.022099,-0.0044134,0.030958,0.06633,0.1017,0.1017,0.084016,0.06633,0.06633,0.06633,0.1017,0.11939,0.084016,0.06633,0.1017,0.13707,0.13707,0.06633,-0.0044134,-0.075157,-0.11053,-0.092842,-0.075157,-0.092842,-0.11053,-0.11053,-0.1459,-0.21664,-0.19896,-0.12821,-0.075157,-0.075157,-0.057471,-0.039785,-0.039785,-0.022099,-0.0044134,0.013272,0.030958,-0.0044134,-0.092842,-0.11053,-0.092842,-0.057471,-0.12821,-0.21664,-0.2697,-0.25201,-0.19896,-0.092842,-0.11053,-0.12821,-0.11053,-0.1459,-0.18127,-0.21664,-0.23433,-0.23433,-0.21664,-0.19896,-0.23433,-0.21664,-0.16359,-0.11053,-0.092842,-0.092842,-0.075157,-0.11053,-0.1459,-0.1459,-0.092842,-0.075157,-0.057471,-0.022099,-0.039785,0.013272,0.030958,0.013272,-0.057471,-0.057471,-0.057471,-0.0044134,-0.022099,-0.092842,-0.16359,-0.16359,-0.075157,-0.0044134,-0.022099,-0.022099,-0.022099,-0.0044134,0.013272,-0.0044134,-0.039785,-0.057471,-0.092842,-0.11053,-0.1459,-0.16359,-0.16359,-0.16359,-0.092842,-0.057471,-0.0044134,0.013272,-0.022099,-0.022099,-0.0044134,0.013272,0.013272,0.06633,0.1017,0.030958,0.013272,0.013272,0.013272,0.013272,0.048644,0.1017,0.06633,0.048644,0.048644,0.013272,0.030958,0.048644,0.06633,0.030958,0.013272,0.06633,0.084016,0.030958,0.013272,0.013272,-0.0044134,-0.0044134,-0.039785,-0.039785,-0.0044134,0.013272,0.013272,0.013272,0.048644,0.1017,0.13707,0.1017,0.06633,0.1017,0.11939,0.1017,0.11939,0.11939,0.06633,0.048644,0.048644,0.084016,0.084016,0.013272,-0.022099,-0.022099,-0.039785,-0.075157,-0.11053,-0.092842,-0.039785,-0.039785,-0.092842,-0.11053,-0.092842,-0.057471,-0.0044134,0.013272,0.030958,0.048644,0.084016,0.15476,0.24319,0.20782,0.11939,0.084016,0.030958,0.06633,0.13707,0.19013,0.17244,0.13707,0.13707,0.11939,0.11939,0.15476,0.17244,0.15476,0.1017,0.030958,0.030958,0.048644,0.084016,0.1017,0.06633,-0.0044134,-0.092842,-0.11053,-0.075157,-0.022099,0.013272,0.013272,0.048644,0.084016,0.048644,0.06633,0.13707,0.15476,0.17244,0.19013,0.17244,0.17244,0.17244,0.17244,0.11939,0.048644,0.013272,0.013272,0.013272,0.013272,-0.0044134,-0.0044134,0.013272,-0.0044134,0.013272,0.06633,0.13707,0.17244,0.19013,0.17244,0.19013,0.17244,0.15476,0.15476,0.13707,0.06633,0.048644,0.084016,0.06633,0.030958,0.013272,0.013272,0.048644,0.1017,0.1017,0.13707,0.17244,0.084016,0.030958,0.06633,0.15476,0.2255,0.2255,0.2255,0.2255,0.19013,0.2255,0.26087,0.26087,0.2255,0.15476,0.11939,0.13707,0.15476,0.17244,0.17244,0.19013,0.19013,0.19013,0.13707,0.06633,0.11939,0.13707,0.084016,0.06633,0.048644,0.013272,0.013272,0.013272,0.030958,0.06633,0.048644,-0.0044134,-0.0044134,0.1017,0.24319,0.27856,0.26087,0.27856,0.26087,0.2255,0.20782,0.2255,0.24319,0.24319,0.2255,0.17244,0.19013,0.20782,0.19013,0.13707,0.084016,0.030958,0.013272,-0.022099,-0.022099,0.030958,0.030958,0.013272,0.048644,0.11939,0.19013,0.20782,0.19013,0.19013,0.13707,0.11939,0.1017,0.048644,0.048644,0.048644,0.048644,0.030958,0.030958,0.030958,0.048644,0.11939,0.15476,0.19013,0.19013,0.20782,0.19013,0.19013,0.17244,0.13707,0.084016,0.084016,0.1017,0.11939,0.11939,0.15476,0.19013,0.20782,0.19013,0.17244,0.2255,0.27856,0.24319,0.20782,0.17244,0.13707,0.13707,0.06633,-0.0044134,-0.057471,-0.11053,-0.18127,-0.21664,-0.28739,-0.34044,-0.41119,-0.41119,-0.37581,-0.35813,-0.3935,-0.37581,-0.34044,-0.35813,-0.35813,-0.28739,-0.21664,-0.21664,-0.25201,-0.21664,-0.16359,-0.16359,-0.16359,-0.12821,-0.075157,-0.057471,-0.075157,-0.092842,-0.075157,-0.0044134,0.030958,0.11939,0.15476,0.11939,0.13707,0.15476,0.20782,0.20782,0.17244,0.13707,0.06633,-0.022099,-0.11053,-0.16359,-0.19896,-0.25201,-0.34044,-0.37581,-0.3935,-0.41119,-0.37581,-0.34044,-0.35813,-0.37581,-0.37581,-0.41119,-0.41119,-0.37581,-0.30507,-0.19896,-0.11053,-0.057471,-0.092842,-0.11053,-0.092842,-0.022099,0.030958,0.084016,0.06633,0.013272,-0.0044134,-0.11053,-0.19896,-0.23433,-0.21664,-0.21664,-0.21664,-0.23433,-0.18127,-0.12821,-0.075157,-0.075157,-0.039785,0.013272,-0.0044134,-0.0044134,0.013272,0.013272,0.013272,0.048644,0.048644,0.013272,-0.022099,-0.057471,-0.057471,-0.057471,-0.039785,0.013272,0.013272,0.06633,0.084016,0.048644,0.06633,0.1017,0.084016,0.06633,0.013272,0.013272,0.030958,0.06633,0.13707,0.2255,0.27856,0.2255,0.17244,0.13707,0.17244,0.24319,0.26087,0.2255,0.2255,0.26087,0.24319,0.20782,0.20782,0.2255,0.2255,0.19013,0.13707,0.048644,0.084016,0.11939,0.13707,0.17244,0.2255,0.2255,0.20782,0.24319,0.26087,0.27856,0.24319,0.19013,0.15476,0.13707,0.19013,0.24319,0.26087,0.2255,0.17244,0.15476,0.19013,0.19013,0.19013,0.19013,0.20782,0.17244,0.15476,0.13707,0.13707,0.17244,0.20782,0.17244,0.084016,-0.0044134,-0.092842,-0.2697,-0.53499,-0.74722,-0.99482,-1.2424,-1.4193,-1.5254,-1.6669,-1.8968,-2.1267,-2.392,-2.6396,-2.8518,-2.9756,-3.0287,-3.0817,-3.0641,-2.9579,-2.7457,-2.5865,-2.5158,-2.5158,-2.6042,-2.7811,-2.8695,-2.8518,-2.8695,-2.9756,-3.2409,-3.5769,-3.9837,-4.4435,-4.7973,-4.9741,-4.7265,-3.8953,-2.8165,-1.7199,-0.53499,0.79145,2.0118,2.9137,3.7803,4.6293,5.2836,5.7965,6.4863,7.2291,7.8834,8.5909,9.4575,10.2,10.536,10.483,10.147,9.7051,9.1568,8.3256,6.9815,5.3013,3.8865,3.0199,2.4893,1.9941,1.5166,1.0567,0.70302,0.43773,0.2255,0.013272,-0.11053,-0.19896,-0.23433,-0.18127,-0.092842,-0.022099,-0.0044134,-0.022099,-0.0044134,-0.0044134,-0.022099,-0.0044134,0.048644,0.1017,0.15476,0.20782,0.26087,0.31393,0.3493,0.33162,0.29625,0.27856,0.24319,0.26087,0.29625,0.31393,0.27856,0.2255,0.19013,0.13707,0.06633,0.084016,0.084016,0.048644,0.048644,0.084016,0.15476,0.20782,0.26087,0.27856,0.27856,0.31393,0.33162,0.33162,0.31393,0.29625,0.26087,0.2255,0.2255,0.19013,0.20782,0.2255,0.20782,0.19013,0.2255,0.20782,0.15476,0.11939,0.06633,0.084016,0.11939,0.11939,0.084016,0.048644,0.06633,0.06633,0.030958,0.030958,0.06633,0.13707,0.17244,0.15476,0.15476,0.19013,0.19013,0.2255,0.26087,0.2255,0.17244,0.17244,0.19013,0.2255,0.20782,0.20782,0.19013,0.19013,0.2255,0.24319,0.26087,0.2255,0.2255,0.24319,0.26087,0.31393,0.38467,0.36699,0.3493,0.31393,0.31393,0.33162,0.31393,0.38467,0.43773,0.43773,0.43773,0.49079,0.4731,0.49079,0.50847,0.49079,0.52616,0.5969,0.63228,0.63228,0.61459,0.56153,0.52616,0.4731,0.40236,0.38467,0.36699,0.33162,0.3493,0.40236,0.4731,0.4731,0.42005,0.38467,0.40236,0.45542,0.45542,0.38467,0.33162,0.3493,0.40236,0.40236,0.36699,0.31393,0.27856,0.2255,0.17244,0.17244,0.17244,0.13707,0.11939,0.13707,0.13707,0.11939,0.11939,0.1017,0.1017,0.11939,0.13707,0.13707,0.15476,0.20782,0.2255,0.20782,0.13707,0.084016,0.06633,0.06633,0.048644,0.030958,0.013272,-0.0044134,0.013272,0.06633,0.1017,0.048644,-0.0044134,-0.039785,-0.039785,-0.057471,-0.11053,-0.11053,-0.092842,-0.12821,-0.1459,-0.16359,-0.1459,-0.11053,-0.092842,-0.039785,-0.0044134,0.013272,-0.0044134,-0.057471,-0.11053,-0.1459,-0.18127,-0.16359,-0.18127,-0.16359,-0.12821,-0.12821,-0.12821,-0.12821,-0.1459,-0.18127,-0.23433,-0.23433,-0.25201,-0.2697,-0.34044,-0.44656,-0.5173,-0.48193,-0.42887,-0.37581,-0.35813,-0.37581,-0.44656,-0.49962,-0.48193,-0.5173,-0.53499,-0.57036,-0.58804,-0.53499,-0.46424,-0.46424,-0.48193,-0.55267,-0.58804,-0.53499,-0.5173,-0.5173,-0.49962,-0.5173,-0.58804,-0.69416,-0.74722,-0.78259,-0.78259,-0.74722,-0.71185,-0.69416,-0.72953,-0.78259,-0.7649,-0.71185,-0.71185,-0.74722,-0.83565,-0.87102,-0.92407,-0.94176,-0.8887,-0.8887,-0.90639,-0.94176,-0.95945,-0.95945,-0.99482,-0.99482,-0.97713,-0.97713,-1.0656,-1.1009,-1.1363,-1.1363,-1.1894,-1.2601,-1.3308,-1.3308,-1.3132,-1.2247,-1.1186,-1.0656,-1.0125,-0.95945,-0.92407,-0.92407,-0.90639,-0.8887,-0.83565,-0.81796,-0.83565,-0.7649,-0.67647,-0.6411,-0.65879,-0.67647,-0.69416,-0.72953,-0.78259,-0.7649,-0.71185,-0.6411,-0.53499,-0.48193,-0.48193,-0.48193,-0.42887,-0.41119,-0.35813,-0.32276,-0.34044,-0.37581,-0.42887,-0.42887,-0.3935,-0.34044,-0.32276,-0.30507,-0.30507,-0.28739,-0.25201,-0.23433,-0.21664,-0.25201,-0.25201,-0.23433,-0.21664,-0.19896,-0.18127,-0.16359,-0.19896,-0.16359,-0.1459,-0.11053,-0.092842,-0.039785,-0.057471,-0.075157,-0.092842,-0.11053,-0.16359,-0.18127,-0.11053,-0.022099,-0.039785,-0.057471,-0.039785,-0.057471,-0.075157,-0.11053,-0.092842,-0.039785,-0.039785,-0.022099,-0.0044134,0.013272,-0.0044134,-0.075157,-0.1459,-0.18127,-0.1459,-0.075157,-0.0044134,-0.039785,-0.11053,-0.18127,-0.19896,-0.18127,-0.12821,-0.092842,-0.075157,-0.039785,-0.057471,-0.075157,-0.075157,-0.039785,0.013272,0.013272,-0.039785,-0.11053,-0.12821,-0.11053,-0.092842,-0.075157,-0.092842,-0.092842,-0.092842,-0.075157,-0.039785,-0.039785,-0.057471,-0.11053,-0.1459,-0.075157,-0.039785,-0.057471,-0.075157,-0.092842,-0.16359,-0.1459,-0.092842,-0.057471,-0.075157,-0.1459,-0.19896,-0.25201,-0.23433,-0.16359,-0.1459,-0.16359,-0.19896,-0.21664,-0.25201,-0.28739,-0.28739,-0.25201,-0.23433,-0.25201,-0.23433,-0.21664,-0.16359,-0.092842,-0.092842,-0.092842,-0.092842,-0.092842,-0.039785,-0.039785,-0.022099,-0.039785,-0.11053,-0.1459,-0.1459,-0.11053,-0.039785,-0.039785,-0.092842,-0.075157,-0.11053,-0.092842,-0.0044134,-0.0044134,-0.0044134,-0.075157,-0.075157,-0.057471,-0.075157,-0.075157,-0.11053,-0.092842,-0.075157,-0.075157,-0.092842,-0.092842,-0.057471,-0.022099,-0.0044134,-0.022099,-0.022099,0.048644,0.048644,0.048644,0.030958,0.013272,0.030958,0.048644,0.048644,0.1017,0.11939,0.13707,0.13707,0.1017,0.06633,0.084016,0.084016,0.06633,0.1017,0.084016,0.030958,0.048644,0.084016,0.13707,0.11939,0.06633,0.013272,-0.0044134,0.013272,0.06633,0.11939,0.11939,0.084016,0.06633,0.084016,0.15476,0.15476,0.084016,0.030958,-0.022099,-0.075157,-0.092842,-0.057471,-0.039785,-0.075157,-0.092842,-0.092842,-0.039785,-0.0044134,0.030958,0.06633,0.030958,-0.0044134,-0.0044134,-0.039785,-0.057471,-0.11053,-0.075157,-0.075157,-0.092842,-0.092842,-0.057471,-0.057471,-0.039785,-0.022099,-0.075157,-0.11053,-0.12821,-0.19896,-0.23433,-0.23433,-0.19896,-0.18127,-0.18127,-0.16359,-0.16359,-0.18127,-0.19896,-0.23433,-0.23433,-0.16359,-0.11053,-0.022099,-0.0044134,-0.057471,-0.12821,-0.12821,-0.12821,-0.057471,-0.0044134,0.030958,0.030958,0.030958,0.013272,-0.0044134,-0.0044134,-0.0044134,-0.039785,-0.092842,-0.1459,-0.18127,-0.1459,-0.075157,-0.0044134,0.048644,0.013272,-0.0044134,-0.0044134,-0.0044134,0.013272,0.030958,0.013272,-0.0044134,-0.039785,-0.11053,-0.16359,-0.1459,-0.12821,-0.19896,-0.21664,-0.16359,-0.11053,-0.075157,-0.057471,-0.022099,-0.0044134,-0.0044134,0.048644,0.048644,-0.0044134,-0.0044134,0.013272,0.030958,-0.0044134,-0.039785,-0.022099,0.013272,0.013272,0.030958,0.030958,-0.0044134,-0.0044134,-0.039785,-0.092842,-0.075157,-0.075157,-0.039785,0.013272,0.048644,0.1017,0.17244,0.20782,0.15476,0.1017,0.084016,0.13707,0.17244,0.13707,0.084016,0.048644,0.030958,0.048644,0.048644,0.06633,0.06633,0.013272,-0.0044134,-0.0044134,-0.0044134,0.048644,0.084016,0.06633,0.013272,0.048644,0.06633,0.06633,0.06633,0.06633,0.084016,0.030958,0.030958,0.013272,-0.039785,-0.057471,-0.039785,-0.022099,-0.057471,-0.057471,-0.022099,0.030958,0.06633,0.084016,0.1017,0.11939,0.084016,0.06633,0.06633,0.013272,-0.0044134,-0.0044134,-0.0044134,0.013272,0.013272,0.030958,0.06633,0.06633,0.048644,0.06633,0.11939,0.19013,0.29625,0.27856,0.15476,0.084016,0.084016,0.11939,0.13707,0.1017,0.06633,0.030958,0.013272,0.013272,0.013272,0.013272,0.013272,0.013272,0.013272,-0.0044134,-0.0044134,0.030958,0.06633,0.048644,0.048644,0.048644,0.013272,-0.0044134,-0.0044134,0.013272,0.030958,0.013272,0.030958,0.084016,0.11939,0.13707,0.084016,-0.0044134,-0.0044134,0.013272,0.030958,0.06633,0.11939,0.17244,0.19013,0.19013,0.19013,0.20782,0.19013,0.19013,0.17244,0.1017,0.084016,0.06633,0.06633,0.048644,0.030958,0.048644,0.11939,0.17244,0.19013,0.24319,0.29625,0.19013,0.1017,0.084016,0.1017,0.13707,0.1017,0.048644,0.030958,-0.0044134,-0.039785,-0.075157,-0.057471,-0.0044134,-0.0044134,-0.0044134,0.013272,0.013272,0.030958,0.013272,0.048644,0.1017,0.15476,0.17244,0.13707,0.1017,0.11939,0.17244,0.15476,0.11939,0.11939,0.1017,0.048644,0.1017,0.13707,0.11939,0.13707,0.13707,0.11939,0.13707,0.11939,0.1017,0.1017,0.06633,0.048644,0.030958,0.030958,0.06633,0.084016,0.06633,0.06633,0.1017,0.1017,0.06633,-0.0044134,0.013272,0.06633,0.048644,0.013272,-0.0044134,-0.022099,-0.039785,-0.075157,-0.092842,-0.022099,0.048644,0.048644,0.030958,-0.022099,-0.039785,-0.022099,0.030958,0.06633,0.06633,0.1017,0.1017,0.084016,0.11939,0.19013,0.20782,0.20782,0.20782,0.2255,0.20782,0.13707,0.1017,0.084016,0.06633,0.06633,0.030958,0.013272,-0.0044134,-0.022099,-0.022099,-0.057471,-0.11053,-0.12821,-0.075157,-0.075157,-0.057471,-0.022099,-0.057471,-0.11053,-0.12821,-0.092842,-0.022099,-0.0044134,-0.0044134,-0.039785,-0.075157,-0.057471,-0.075157,-0.092842,-0.11053,-0.1459,-0.21664,-0.2697,-0.30507,-0.28739,-0.21664,-0.12821,-0.11053,-0.12821,-0.12821,-0.16359,-0.1459,-0.18127,-0.18127,-0.1459,-0.16359,-0.19896,-0.25201,-0.30507,-0.30507,-0.32276,-0.30507,-0.30507,-0.28739,-0.23433,-0.16359,-0.11053,-0.092842,-0.092842,-0.092842,-0.057471,-0.075157,-0.092842,-0.12821,-0.19896,-0.28739,-0.30507,-0.2697,-0.2697,-0.30507,-0.34044,-0.35813,-0.30507,-0.25201,-0.19896,-0.16359,-0.1459,-0.12821,-0.12821,-0.1459,-0.092842,-0.039785,-0.022099,-0.039785,-0.12821,-0.19896,-0.25201,-0.2697,-0.34044,-0.34044,-0.28739,-0.23433,-0.19896,-0.1459,-0.092842,-0.11053,-0.11053,-0.075157,-0.057471,-0.11053,-0.16359,-0.16359,-0.1459,-0.11053,-0.092842,-0.075157,-0.11053,-0.12821,-0.1459,-0.16359,-0.16359,-0.092842,-0.039785,-0.057471,-0.075157,-0.092842,-0.092842,-0.11053,-0.12821,-0.11053,-0.075157,-0.022099,-0.022099,-0.022099,-0.0044134,-0.022099,-0.039785,-0.0044134,0.048644,0.084016,0.084016,0.1017,0.1017,0.15476,0.17244,0.15476,0.13707,0.084016,0.06633,0.048644,0.048644,0.048644,0.030958,-0.022099,-0.022099,-0.039785,-0.039785,-0.039785,-0.0044134,0.06633,0.06633,0.048644,0.030958,0.030958,0.06633,0.13707,0.17244,0.19013,0.17244,0.13707,0.1017,0.084016,-0.0044134,-0.022099,0.013272,-0.022099,-0.057471,-0.022099,-0.057471,-0.11053,-0.12821,-0.18127,-0.23433,-0.25201,-0.25201,-0.19896,-0.19896,-0.23433,-0.23433,-0.25201,-0.30507,-0.3935,-0.49962,-0.58804,-0.65879,-0.74722,-0.87102,-1.0302
3,0.27796,0.29375,0.32301,0.31274,0.26658,0.23322,0.24351,0.25634,0.22555,0.2101,0.23925,0.2345,0.21042,0.23289,0.24086,0.21053,0.22166,0.2641,-0.059505,-0.09194,-0.039557,-0.059672,-0.050205,-0.0037726,0.0079709,0.0092384,0.00066051,-0.026274,-0.048249,-0.074193,-0.0933,-0.075104,-0.044098,-0.02518,-0.002933,0.015918,0.0073294,-0.00046659,0.025361,0.041458,0.017637,0.0096895,0.04382,0.072353,0.075528,0.075623,0.076767,0.074225,0.075716,0.076644,0.078525,0.11289,0.16485,0.18003,0.17697,0.18252,0.15471,0.10635,0.10142,0.11693,0.10789,0.10392,0.11683,0.10725,0.098285,0.13976,0.17783,0.15641,0.13329,0.14456,0.14708,0.13844,0.14405,0.14645,0.1374,0.1454,0.17042,0.1794,0.17719,0.19754,0.23107,0.24454,0.24331,0.24775,0.24132,0.19852,0.13853,0.10795,0.12831,0.16754,0.17571,0.17153,0.19423,0.21171,0.22831,0.28556,0.30916,0.25934,0.2344,0.24535,0.24256,0.25906,0.27833,0.25407,0.23486,0.24751,0.26812,0.30901,0.34984,0.32951,0.26946,0.24264,0.24503,0.23845,0.25024,0.29854,0.32565,0.30539,0.28192,0.26667,0.23651,0.2112,0.22185,0.25014,0.27206,0.29522,0.31447,0.31362,0.3091,0.3115,0.28996,0.23762,0.20844,0.23344,0.26996,0.27727,0.27548,0.29351,0.31575,0.31475,0.30429,0.3179,0.34304,0.33591,0.30384,0.30453,0.3395,0.33868,0.2891,0.25154,0.24341,0.2437,0.24509,0.24461,0.26761,0.32271,0.34493,0.31707,0.30487,0.31358,0.3115,0.32387,0.35281,0.34975,0.3322,0.3577,0.38181,0.34233,0.30724,0.33698,0.37438,0.37593,0.3512,0.31832,0.31565,0.34189,0.34994,0.34399,0.34574,0.33125,0.30335,0.30747,0.33687,0.34465,0.34348,0.36558,0.38141,0.37853,0.39487,0.41932,0.41482,0.40517,0.42138,0.44465,0.45018,0.44432,0.44577,0.44971,0.4432,0.44476,0.46746,0.4838,0.48083,0.47873,0.48057,0.48016,0.48202,0.47463,0.44898,0.43513,0.46251,0.51063,0.52596,0.50356,0.51072,0.56233,0.58094,0.55007,0.53727,0.55815,0.58006,0.60309,0.61703,0.58471,0.54304,0.56627,0.61373,0.61839,0.61616,0.61602,0.58847,0.59054,0.64648,0.68257,0.67537,0.64995,0.63579,0.67139,0.7159,0.70257,0.6673,0.64935,0.62809,0.60355,0.58186,0.57067,0.6026,0.64872,0.63725,0.59845,0.61503,0.66853,0.67957,0.64895,0.65534,0.71517,0.75022,0.72929,0.70945,0.71666,0.7349,0.77221,0.81839,0.82786,0.80217,0.78361,0.76687,0.72379,0.68182,0.67595,0.69218,0.71763,0.7452,0.7441,0.71496,0.68975,0.67651,0.68371,0.70863,0.71782,0.71677,0.7365,0.76541,0.78478,0.78904,0.77018,0.74933,0.74943,0.74259,0.71423,0.70658,0.73476,0.74973,0.72719,0.70824,0.71766,0.7212,0.70835,0.7189,0.74658,0.74105,0.71423,0.71148,0.72125,0.71469,0.69298,0.6647,0.64855,0.66774,0.70495,0.7153,0.6918,0.67465,0.68452,0.68857,0.66514,0.64866,0.66934,0.70309,0.71687,0.71613,0.71675,0.71596,0.71491,0.71922,0.71405,0.69026,0.67515,0.68479,0.68777,0.66583,0.64704,0.64645,0.6572,0.69037,0.73941,0.75036,0.707,0.67909,0.70107,0.71665,0.7138,0.72486,0.70868,0.65754,0.65388,0.68773,0.68648,0.68521,0.72622,0.75307,0.72352,0.67271,0.64839,0.66038,0.68907,0.71332,0.70995,0.67285,0.64737,0.66537,0.68432,0.6816,0.69603,0.71912,0.69621,0.64073,0.61181,0.61369,0.61597,0.61475,0.61453,0.62309,0.66151,0.70941,0.72181,0.71508,0.71679,0.70453,0.67398,0.65168,0.64346,0.65529,0.70297,0.75266,0.73744,0.66481,0.60301,0.5766,0.57773,0.60094,0.6171,0.61469,0.6279,0.65576,0.65352,0.62653,0.61155,0.58876,0.55002,0.55705,0.60732,0.63613,0.65718,0.68168,0.66797,0.64354,0.64735,0.65059,0.649,0.65021,0.63148,0.61018,0.61362,0.6185,0.61311,0.61429,0.61873,0.60948,0.58488,0.57247,0.5881,0.58531,0.5534,0.55169,0.55194,0.50244,0.48117,0.51161,0.50438,0.46757,0.44869,0.42571,0.41018,0.41362,0.38469,0.31735,0.25089,0.18488,0.11799,0.077774,0.059178,0.024918,-0.022003,-0.049306,-0.070092,-0.12128,-0.1792,-0.19578,-0.19375,-0.21172,-0.24221,-0.29136,-0.33469,-0.31147,-0.29322,-0.37499,-0.45343,-0.43344,-0.3979,-0.39926,-0.39727,-0.39276,-0.39765,-0.36622,-0.27742,-0.19858,-0.19311,-0.23815,-0.27233,-0.26286,-0.23293,-0.23244,-0.26104,-0.2847,-0.30493,-0.32886,-0.35021,-0.37427,-0.39657,-0.41437,-0.45025,-0.4977,-0.52427,-0.53833,-0.56548,-0.5925,-0.59901,-0.59933,-0.61632,-0.6521,-0.70103,-0.7484,-0.78526,-0.83653,-0.90749,-0.95454,-0.97071,-0.99159,-1.0099,-1.0037,-0.99838,-1.0088,-1.0035,-0.99242,-1.0323,-1.1082,-1.1588,-1.1842,-1.2076,-1.2298,-1.2469,-1.2389,-1.2111,-1.2071,-1.2049,-1.1433,-1.0605,-1.0384,-1.0633,-1.0673,-1.0344,-0.98755,-0.94831,-0.93648,-0.93987,-0.91587,-0.86451,-0.83375,-0.84323,-0.87194,-0.91367,-0.96624,-1.0076,-1.0645,-1.177,-1.2817,-1.3269,-1.3672,-1.4125,-1.4326,-1.4666,-1.5139,-1.5163,-1.5071,-1.5517,-1.6058,-1.5949,-1.5349,-1.4684,-1.3891,-1.2941,-1.2033,-1.1154,-1.0241,-0.93289,-0.85164,-0.79347,-0.73198,-0.62004,-0.47514,-0.35716,-0.2894,-0.25767,-0.23785,-0.19346,-0.1123,-0.061111,-0.061077,-0.0097655,0.089168,0.12502,0.15411,0.24974,0.30979,0.31344,0.35756,0.41987,0.45304,0.51676,0.62342,0.69077,0.70935,0.74504,0.79199,0.81316,0.83255,0.85459,0.85367,0.84807,0.85232,0.85214,0.84901,0.85357,0.87646,0.89961,0.87381,0.82347,0.82493,0.85709,0.85566,0.84258,0.85673,0.88058,0.89032,0.8804,0.85649,0.84259,0.85724,0.88203,0.87777,0.83988,0.81634,0.83382,0.85429,0.8525,0.84944,0.85131,0.85087,0.85319,0.84724,0.8232,0.79836,0.77697,0.75371,0.74345,0.75519,0.77917,0.7927,0.77551,0.75191,0.74983,0.74794,0.74719,0.77135,0.78207,0.75503,0.74154,0.75391,0.75213,0.74318,0.75731,0.78175,0.77555,0.73545,0.71544,0.72517,0.70239,0.65381,0.64215,0.65024,0.64822,0.66521,0.686,0.65679,0.60088,0.5777,0.581,0.58102,0.58218,0.58218,0.57602,0.58963,0.61404,0.60311,0.56827,0.54874,0.54425,0.55315,0.57861,0.59242,0.56593,0.51803,0.49958,0.53114,0.5781,0.59249,0.56958,0.5485,0.54718,0.54652,0.5472,0.55309,0.53756,0.51449,0.5291,0.5567,0.54949,0.52332,0.51133,0.51399,0.50122,0.46204,0.44607,0.45676,0.4258,0.3802,0.37906,0.36984,0.34556,0.36463,0.37968,0.34694,0.31743,0.3091,0.31134,0.31799,0.29833,0.27775,0.31328,0.36862,0.37935,0.35746,0.33426,0.31187,0.30445,0.31959,0.31184,0.26626,0.22478,0.17671,0.13186,0.18522,0.31223,0.37698,0.37392,0.37933,0.41619,0.48318,0.54872,0.59127,0.64703,0.71814,0.78382,0.85217,0.88525,0.87697,0.91156,0.98911,1.0534,1.1353,1.2254,1.2539,1.2689,1.3643,1.5213,1.6744,1.8026,1.9012,1.9513,1.9658,2.0184,2.1383,2.2388,2.2493,2.2091,2.1633,2.1003,2.0139,1.924,1.853,1.7985,1.7192,1.5889,1.4342,1.274,1.0974,0.9023,0.69489,0.49038,0.29812,0.083228,-0.18303,-0.46781,-0.72843,-0.93846,-1.0963,-1.2637,-1.4862,-1.7222,-1.9432,-2.1691,-2.3803,-2.5405,-2.6542,-2.7481,-2.8379,-2.9102,-2.9305,-2.882,-2.7897,-2.6969,-2.6075,-2.4764,-2.2958,-2.1276,-2.0459,-2.0987,-2.2906,-2.5459,-2.741,-2.8374,-2.9197,-3.0825,-3.3523,-3.6916,-4.0472,-4.3592,-4.4965,-4.3422,-3.9549,-3.4463,-2.7996,-1.9756,-1.0285,-0.061903,0.81805,1.5633,2.2101,2.7901,3.2889,3.6927,4.0259,4.3418,4.6094,4.7007,4.6239,4.5423,4.5327,4.5758,4.6625,4.7449,4.7457,4.6576,4.5282,4.3929,4.25,4.0751,3.8911,3.7574,3.6554,3.5199,3.3552,3.2106,3.1211,3.0971,3.1174,3.1645,3.2134,3.1957,3.0997,3.0123,2.9602,2.892,2.8132,2.7592,2.7158,2.6664,2.6287,2.6089,2.578,2.5149,2.4469,2.4002,2.3497,2.2804,2.2243,2.1882,2.1428,2.0903,2.0562,2.0366,1.9912,1.8926,1.7785,1.699,1.6398,1.5718,1.4916,1.3823,1.2441,1.1185,1.0212,0.93237,0.8415,0.75282,0.68812,0.67157,0.69025,0.71374,0.72379,0.7045,0.65619,0.60488,0.57008,0.54985,0.53071,0.50195,0.4807,0.49424,0.52322,0.51774,0.47384,0.43346,0.41446,0.39535,0.36799,0.347,0.32922,0.29534,0.24833,0.21586,0.21075,0.2111,0.19462,0.16068,0.11324,0.076589,0.083797,0.10821,0.11071,0.11049,0.11008,0.087919,0.072016,0.075537,0.060529,0.027908,0.0087492,-0.0087463,-0.040232,-0.059233,-0.058105,-0.061899,-0.059962,-0.051217,-0.07359,-0.093435,-0.069067,-0.063028,-0.092486,-0.097849,-0.091384,-0.093356,-0.0738,-0.051098,-0.059122,-0.081267,-0.10421,-0.12677,-0.13165,-0.12182,-0.1269,-0.13479,-0.11143,-0.093246,-0.11494,-0.13083,-0.12696,-0.12826,-0.12177,-0.12735,-0.17301,-0.20438,-0.19406,-0.17422,-0.13797,-0.092348,-0.084517,-0.10088,-0.092435,-0.06552,-0.062604,-0.094588,-0.10755,-0.063559,-0.025239,-0.04342,-0.074169,-0.094309,-0.11847,-0.13035,-0.12651,-0.11011,-0.062524,-0.025255,-0.0616,-0.13005,-0.16176,-0.17988,-0.21516,-0.22736,-0.20297,-0.1901,-0.1946,-0.19327,-0.19796,-0.19219,-0.14693,-0.10996,-0.13106,-0.17923,-0.20506,-0.19109,-0.14607,-0.1019,-0.094813,-0.13629,-0.1965,-0.2298,-0.22989,-0.22611,-0.22817,-0.227,-0.23471,-0.26714,-0.31239,-0.35692,-0.40261,-0.43088,-0.41135,-0.35423,-0.30409,-0.29447,-0.33933,-0.43001,-0.51269,-0.52984,-0.50458,-0.48765,-0.4567,-0.40585,-0.3994,-0.43661,-0.45968,-0.47404,-0.5042,-0.54903,-0.59171,-0.59707,-0.59164,-0.62381,-0.62655,-0.55477,-0.4991,-0.50021,-0.5202,-0.57142,-0.64575,-0.67148,-0.64432,-0.63402,-0.65789,-0.68268,-0.70519,-0.72909,-0.73672,-0.7332,-0.73432,-0.72245,-0.69423,-0.69267,-0.72363,-0.73131,-0.70582,-0.69363,-0.70298,-0.72404,-0.76962,-0.8047,-0.77905,-0.74663,-0.78154,-0.83123,-0.82226,-0.79745,-0.80115,-0.78024,-0.71668,-0.69345,-0.73813,-0.77123,-0.76742,-0.77941,-0.80866,-0.83069,-0.84447,-0.82404,-0.77513,-0.75853,-0.77008,-0.76859,-0.76679,-0.76449,-0.73956,-0.72201,-0.74263,-0.76678,-0.75407,-0.72659,-0.72933,-0.75581,-0.76853,-0.76731,-0.76983,-0.76224,-0.73769,-0.72655,-0.73748,-0.73658,-0.71454,-0.69294,-0.67035,-0.65422,-0.67975,-0.72797,-0.75389,-0.7766,-0.80093,-0.77592,-0.70931,-0.66793,-0.67739,-0.71254,-0.73371,-0.71981,-0.68795,-0.66764,-0.66382,-0.66941,-0.69544,-0.72955,-0.72689,-0.70206,-0.69713,-0.70178,-0.72825,-0.78521,-0.79332,-0.73912,-0.72002,-0.7412,-0.73589,-0.72498,-0.74111,-0.73704,-0.69048,-0.65778,-0.66535,-0.6703,-0.66535,-0.69597,-0.75099,-0.76573,-0.73659,-0.70866,-0.6951,-0.69916,-0.72355,-0.73191,-0.70271,-0.67121,-0.66866,-0.698,-0.74565,-0.77568,-0.7687,-0.75899,-0.77924,-0.8014,-0.78642,-0.75044,-0.7341,-0.7511,-0.77706,-0.76881,-0.73612,-0.7459,-0.80047,-0.83316,-0.83159,-0.83519,-0.85735,-0.86971,-0.83598,-0.79561,-0.82273,-0.86914,-0.85419,-0.81815,-0.8017,-0.79479,-0.8136,-0.83551,-0.83164,-0.84613,-0.86923,-0.84907,-0.82621,-0.8358,-0.8552,-0.88472,-0.9028,-0.88061,-0.86207,-0.86927,-0.85319,-0.81273,-0.80208,-0.82471,-0.8391,-0.83504,-0.83281,-0.83524,-0.83551,-0.85222,-0.88815,-0.90267,-0.89808,-0.91003,-0.90036,-0.84917,-0.83456,-0.87192,-0.89673,-0.91103,-0.93877,-0.96175,-0.98126,-1.0057,-1.0101,-0.98852,-0.96867,-0.94837,-0.91502,-0.90341,-0.92572,-0.94726,-0.97374,-1.0034,-0.98229,-0.93214,-0.92699,-0.94553,-0.93324,-0.90719,-0.89881,-0.90354,-0.92164,-0.96613,-1.0065,-0.98937,-0.93103,-0.90194,-0.9238,-0.94691,-0.9328,-0.92533,-0.96704,-1.0074,-1.0254,-1.0693,-1.107,-1.0846,-1.0492,-1.036,-1.0333,-1.0516,-1.0731,-1.0716,-1.0725,-1.0675,-1.0217,-0.97364,-0.97296,-0.9974,-1.0074,-1.0023,-1.0014,-1.006,-1.002,-0.99978,-1.0175,-1.0415,-1.0628,-1.0911,-1.1041,-1.0797,-1.0596,-1.0756,-1.0782,-1.0457,-1.0406,-1.0674,-1.0616,-1.0304,-1.0083,-0.99392,-1.0107,-1.0382,-1.009,-0.96165,-0.96335,-0.98805,-1.0071,-1.0082,-0.98177,-0.96991,-0.97388,-0.93726,-0.89643,-0.92205,-0.97928,-1.0066,-1.0049,-1.0015,-1.0027,-0.98001,-0.92891,-0.89763,-0.90074,-0.90298,-0.90402,-0.92845,-0.96113,-0.96779,-0.94362,-0.9016,-0.85576,-0.83477,-0.83988,-0.82737,-0.80293,-0.80408,-0.79191,-0.74212,-0.71921,-0.74295,-0.76555,-0.76963,-0.76546,-0.76624,-0.7726,-0.75967,-0.73534,-0.74502,-0.77579,-0.77211,-0.74139,-0.73625,-0.76279,-0.78976,-0.8045,-0.80337,-0.78231,-0.76202,-0.76572,-0.77527,-0.75555,-0.70737,-0.65758,-0.62,-0.60008,-0.59778,-0.59777,-0.59807,-0.6144,-0.64326,-0.66534,-0.65814,-0.60976,-0.56635,-0.59198,-0.65506,-0.66915,-0.62665,-0.58436,-0.56628,-0.56019,-0.57494,-0.62725,-0.67058,-0.65191,-0.63166,-0.67188,-0.70938,-0.70173,-0.68317,-0.64657,-0.60097,-0.60612,-0.6547,-0.6983,-0.71234,-0.68057,-0.6349,-0.61154,-0.58417,-0.56504,-0.60097,-0.6513,-0.6664,-0.68198,-0.71178,-0.70204,-0.65192,-0.62568,-0.63269,-0.63443,-0.63118,-0.63298,-0.63175,-0.63404,-0.63325,-0.61136,-0.5919,-0.59908,-0.60531,-0.58658,-0.56565,-0.5637,-0.56085,-0.53191,-0.48411,-0.45155,-0.4645,-0.49501,-0.48795,-0.46419,-0.46259,-0.46151,-0.4646,-0.48886,-0.49861,-0.49829,-0.52047,-0.5358,-0.53157,-0.51695,-0.46177,-0.39532,-0.40208,-0.46542,-0.49818,-0.47894,-0.44692,-0.43016,-0.42949,-0.42525,-0.3945,-0.36258,-0.3745,-0.39734,-0.39485,-0.40662,-0.43162,-0.43349,-0.42281,-0.39376,-0.36223,-0.37213,-0.35919,-0.30111,-0.32129,-0.40206,-0.41011,-0.38274,-0.39964,-0.42534,-0.4322,-0.43,-0.42782,-0.43457,-0.42843,-0.40317,-0.39282,-0.39751,-0.41545,-0.45585,-0.46085,-0.41048,-0.39616,-0.43512,-0.44104,-0.40851,-0.39687,-0.39977,-0.38275,-0.3608,-0.35873,-0.37356,-0.40113,-0.42643,-0.42993,-0.43123,-0.43429,-0.41386,-0.39556,-0.39799,-0.38337,-0.36049,-0.36073,-0.36258,-0.36461,-0.38814,-0.40361,-0.39526,-0.41353,-0.47117,-0.49682,-0.45125,-0.38973,-0.35864,-0.33628,-0.31844,-0.33497,-0.36155,-0.35027,-0.32571,-0.32623,-0.33198,-0.32811,-0.32803,-0.33013,-0.32847,-0.32777,-0.33863,-0.37125,-0.39744,-0.37279,-0.31713,-0.29308,-0.31194,-0.33174,-0.33071,-0.32644,-0.33041,-0.33183,-0.30663,-0.2445,-0.19636,-0.20873,-0.22912,-0.20394,-0.16894,-0.16126,-0.18424,-0.2322,-0.26696,-0.26435,-0.25782,-0.26191,-0.23938,-0.17589,-0.11154,-0.090134,-0.12247,-0.17213,-0.17004,-0.11515,-0.093837,-0.1217,-0.13214,-0.12574,-0.12837,-0.10081,-0.042005,-0.022333,-0.048664,-0.058887,-0.056944,-0.080372,-0.09196,-0.065272,-0.038227,-0.018714,0.0044964,0.023981,0.053397,0.076585,0.04403,-0.0018141,0.029539,0.11058,0.14899,0.14387,0.14403,0.13835,0.1126,0.10259,0.11315,0.11075,0.10397,0.11399,0.1121,0.083694,0.081882,0.13488,0.17968,0.16644,0.14327,0.15789,0.18742,0.20853,0.21783,0.2005,0.17723,0.19196,0.2178,0.21172,0.21608,0.26965,0.31137,0.27959,0.22772,0.24017,0.27933,0.26589,0.24373,0.26705,0.2748,0.24595,0.23999,0.24163,0.21266,0.19848,0.22396,0.24382,0.24225,0.25093,0.27654,0.28621,0.2673,0.2451,0.22467,0.20062,0.2088,0.25725,0.28418
4,-0.25978,-0.25788,-0.2589,-0.24839,-0.22768,-0.22963,-0.25278,-0.25626,-0.25617,-0.27707,-0.2815,-0.28221,-0.28101,-0.23751,-0.25501,-0.29933,-0.10379,-0.059468,-0.065124,-0.016314,-0.035781,-0.039576,-0.036792,-0.06132,-0.063467,-0.057028,-0.058939,-0.041836,-0.028148,-0.036451,-0.037334,-0.029143,-0.038359,-0.056818,-0.060242,-0.059894,-0.060962,-0.046463,-0.031638,-0.033649,-0.035788,-0.034015,-0.034574,-0.03363,-0.035904,-0.035324,-0.01913,-0.005798,-0.0095111,-0.012056,-0.0068716,-0.0098595,-0.026247,-0.039892,-0.033783,-0.015336,-0.0065501,-0.010174,-0.011,-0.0077264,-0.010349,-0.011475,-0.0055494,-0.012641,-0.031821,-0.029116,-0.0034913,0.013731,0.015863,0.015142,0.01517,0.015206,0.015198,0.015116,0.015335,0.015069,0.015039,0.015665,0.014768,0.014976,0.016259,0.01404,0.014964,0.017594,0.011739,0.015318,0.034737,0.040429,0.040472,0.058676,0.063479,0.036686,0.016375,0.016624,0.014274,0.01219,0.026618,0.04175,0.041366,0.03854,0.040497,0.040311,0.039713,0.039887,0.039334,0.049203,0.073144,0.089022,0.088864,0.091642,0.090898,0.073313,0.063091,0.06482,0.062274,0.071851,0.089409,0.090815,0.090778,0.089369,0.071804,0.06222,0.064824,0.063065,0.073353,0.090946,0.091656,0.088338,0.089774,0.089261,0.091789,0.087353,0.069242,0.060021,0.067767,0.084697,0.10587,0.11551,0.11434,0.11688,0.11025,0.09175,0.085352,0.094121,0.11214,0.13462,0.13603,0.11549,0.10929,0.11902,0.11463,0.096414,0.08683,0.089744,0.090332,0.092707,0.11692,0.1401,0.12888,0.11391,0.11623,0.10365,0.089286,0.10682,0.12252,0.11146,0.11017,0.1299,0.14014,0.13904,0.14187,0.13548,0.11702,0.11108,0.11595,0.11488,0.11362,0.11493,0.11451,0.11459,0.11417,0.11438,0.11569,0.11252,0.11442,0.1312,0.14358,0.139,0.13662,0.14313,0.13809,0.11916,0.11688,0.14336,0.16376,0.16056,0.16711,0.18691,0.18165,0.16069,0.16122,0.16914,0.16137,0.16102,0.1799,0.19004,0.18875,0.19185,0.18398,0.16568,0.16211,0.1642,0.16365,0.17807,0.19386,0.18938,0.18516,0.19319,0.18892,0.17002,0.16248,0.16413,0.16232,0.17191,0.19027,0.19215,0.1855,0.19008,0.19237,0.1777,0.1624,0.16241,0.16661,0.16288,0.16203,0.17577,0.19246,0.19179,0.17458,0.1617,0.16323,0.16656,0.1621,0.16296,0.17814,0.19581,0.21263,0.22084,0.20369,0.18902,0.19304,0.17852,0.16419,0.18194,0.18954,0.18965,0.20991,0.20743,0.18794,0.18954,0.17933,0.16376,0.18126,0.19527,0.18741,0.18749,0.19051,0.18868,0.18905,0.188,0.19002,0.19023,0.18394,0.19508,0.21291,0.21147,0.2199,0.23818,0.2266,0.20915,0.21334,0.21458,0.21672,0.23806,0.25809,0.26861,0.2889,0.31004,0.3118,0.3139,0.33098,0.3455,0.36611,0.40143,0.42416,0.44105,0.4754,0.50335,0.51373,0.53022,0.55118,0.56435,0.5809,0.60295,0.6117,0.61031,0.62172,0.64259,0.65868,0.67443,0.69193,0.70878,0.72613,0.74112,0.75906,0.77942,0.7851,0.78516,0.7997,0.81849,0.83549,0.85404,0.86058,0.86007,0.87529,0.89184,0.88211,0.86237,0.85869,0.8591,0.85704,0.86941,0.88753,0.90322,0.92505,0.9338,0.93177,0.94796,0.95924,0.95692,0.98105,1.0205,1.0528,1.1001,1.1465,1.1577,1.1644,1.1988,1.2313,1.2455,1.2705,1.3068,1.3372,1.3802,1.4329,1.4677,1.4966,1.5334,1.5666,1.5988,1.634,1.6666,1.7011,1.7334,1.7501,1.7614,1.7837,1.8017,1.8008,1.8074,1.8429,1.8841,1.9076,1.9242,1.9436,1.9534,1.9527,1.9522,1.951,1.9526,1.9459,1.9047,1.8552,1.8242,1.7739,1.7045,1.6527,1.5962,1.5278,1.4884,1.4664,1.4269,1.3894,1.3671,1.3233,1.2536,1.1972,1.1471,1.0787,1.0165,0.97508,0.94104,0.91838,0.90515,0.88819,0.87059,0.8534,0.83662,0.83145,0.83588,0.83565,0.8227,0.8004,0.78586,0.77489,0.74337,0.71143,0.69717,0.66814,0.63605,0.63462,0.63082,0.61027,0.59479,0.56891,0.53355,0.5024,0.45507,0.4074,0.39024,0.37908,0.35913,0.34326,0.31878,0.2787,0.24516,0.21739,0.17677,0.14294,0.12985,0.10279,0.067729,0.063282,0.061133,0.041605,0.037854,0.037366,0.016801,-0.0030977,-0.013503,-0.010158,0.0087807,0.01598,0.015188,0.031589,0.044492,0.039496,0.037537,0.046373,0.067847,0.1023,0.12994,0.14011,0.14105,0.1315,0.11006,0.092167,0.088269,0.090029,0.089836,0.08973,0.089581,0.089442,0.091232,0.086843,0.068376,0.047118,0.038589,0.039773,0.040378,0.039961,0.039966,0.039603,0.041007,0.040045,0.026246,0.0041284,-0.0099477,-0.011054,-0.0083977,-0.0099464,-0.010757,-0.007841,-0.010294,-0.011856,-0.0049224,-0.012559,-0.032504,-0.026737,-0.0067802,-0.00721,-0.012843,-0.0081811,-0.0078988,-0.019916,-0.040941,-0.05789,-0.060221,-0.059427,-0.059698,-0.057328,-0.061695,-0.0607,-0.04151,-0.036036,-0.058005,-0.078426,-0.086862,-0.084421,-0.067494,-0.054976,-0.059701,-0.061948,-0.055514,-0.060466,-0.078271,-0.087422,-0.083601,-0.08262,-0.085862,-0.083489,-0.082581,-0.086847,-0.082314,-0.079998,-0.10602,-0.14132,-0.15675,-0.1682,-0.19033,-0.20658,-0.21767,-0.24432,-0.27907,-0.30002,-0.31281,-0.33086,-0.34949,-0.36081,-0.35812,-0.34069,-0.32833,-0.33274,-0.3357,-0.32427,-0.30717,-0.29051,-0.26673,-0.2297,-0.19203,-0.17487,-0.18655,-0.23091,-0.3211,-0.4576,-0.60959,-0.75033,-0.88223,-1.0146,-1.1722,-1.3872,-1.6259,-1.8184,-1.9637,-2.0979,-2.2214,-2.3326,-2.4519,-2.5849,-2.7185,-2.8546,-2.9925,-3.1126,-3.211,-3.2858,-3.3299,-3.3893,-3.5007,-3.6181,-3.7165,-3.8293,-3.9488,-4.0415,-4.1094,-4.1589,-4.1853,-4.2011,-4.2136,-4.2031,-4.1694,-4.1277,-4.0676,-3.9998,-3.942,-3.8563,-3.7368,-3.6235,-3.4871,-3.2809,-3.0009,-2.6088,-2.0698,-1.4492,-0.82821,-0.20624,0.40448,0.93901,1.4164,1.9047,2.3797,2.8033,3.1628,3.4103,3.5498,3.6396,3.6931,3.7507,3.8774,4.037,4.1523,4.2191,4.2694,4.3241,4.405,4.5192,4.6345,4.7181,4.7747,4.8191,4.8527,4.8768,4.8776,4.8231,4.7153,4.5807,4.4089,4.2112,4.0531,3.9247,3.7726,3.6254,3.4965,3.3454,3.1938,3.0683,2.9464,2.8409,2.7678,2.6884,2.5787,2.461,2.3444,2.216,2.0799,1.9458,1.8093,1.6784,1.5615,1.4455,1.3274,1.2268,1.1518,1.0889,1.022,0.95199,0.88702,0.82032,0.74915,0.68891,0.64096,0.59115,0.53885,0.48977,0.45037,0.42844,0.41286,0.39362,0.38486,0.38779,0.38787,0.3877,0.38727,0.37246,0.34875,0.33752,0.3379,0.33706,0.33858,0.34018,0.32798,0.30962,0.29346,0.27353,0.2624,0.26403,0.25418,0.23206,0.21571,0.2103,0.21673,0.21618,0.18723,0.15277,0.13963,0.13888,0.13959,0.13938,0.13826,0.14113,0.13936,0.12288,0.10995,0.11479,0.11847,0.1053,0.088679,0.087008,0.092886,0.08867,0.086611,0.096355,0.085046,0.048608,0.033516,0.041712,0.041439,0.038089,0.040876,0.041081,0.031002,0.0072782,-0.009295,-0.0065036,-0.015631,-0.033943,-0.023448,-0.0043742,-0.008804,-0.013609,-0.006039,-0.009187,-0.02669,-0.037783,-0.034611,-0.032018,-0.037647,-0.03401,-0.016073,-0.0056069,-0.010635,-0.025996,-0.047945,-0.059934,-0.058999,-0.061496,-0.05719,-0.038772,-0.031253,-0.035062,-0.03404,-0.042473,-0.065845,-0.082661,-0.08532,-0.083722,-0.084009,-0.084654,-0.083613,-0.083987,-0.085296,-0.082549,-0.083577,-0.098669,-0.11407,-0.10965,-0.091407,-0.080801,-0.084369,-0.086602,-0.080483,-0.085039,-0.10331,-0.11122,-0.10893,-0.10913,-0.10762,-0.10985,-0.11223,-0.096098,-0.084123,-0.10142,-0.12413,-0.13568,-0.1363,-0.12078,-0.10669,-0.10811,-0.10999,-0.10865,-0.10912,-0.10747,-0.1125,-0.13167,-0.14133,-0.12488,-0.10943,-0.10978,-0.10626,-0.10877,-0.1278,-0.13374,-0.13418,-0.15287,-0.15514,-0.13274,-0.12892,-0.13852,-0.13279,-0.12935,-0.14551,-0.15981,-0.15944,-0.15819,-0.15855,-0.15801,-0.16046,-0.15707,-0.15584,-0.17331,-0.18419,-0.18231,-0.19664,-0.21064,-0.20863,-0.20998,-0.20332,-0.18492,-0.18122,-0.1833,-0.18321,-0.19825,-0.21245,-0.20865,-0.20597,-0.21007,-0.2084,-0.20574,-0.21477,-0.23485,-0.25348,-0.26,-0.25777,-0.25696,-0.25959,-0.2567,-0.2396,-0.22471,-0.23778,-0.25686,-0.25414,-0.26369,-0.30032,-0.31695,-0.30165,-0.28484,-0.27857,-0.28756,-0.30586,-0.31009,-0.30835,-0.32951,-0.35587,-0.3507,-0.33301,-0.34364,-0.36489,-0.35778,-0.34877,-0.37076,-0.38223,-0.37493,-0.40231,-0.4327,-0.41612,-0.40161,-0.40762,-0.40572,-0.41613,-0.43349,-0.43176,-0.43984,-0.45976,-0.45905,-0.45289,-0.45814,-0.45793,-0.45277,-0.46054,-0.47878,-0.48606,-0.478,-0.47964,-0.49809,-0.50718,-0.50613,-0.51854,-0.53945,-0.5556,-0.57146,-0.58828,-0.60604,-0.62426,-0.63244,-0.63075,-0.63001,-0.62937,-0.63135,-0.64631,-0.66746,-0.68192,-0.69702,-0.71981,-0.72948,-0.71174,-0.69542,-0.71105,-0.74612,-0.77117,-0.7818,-0.79882,-0.82262,-0.8283,-0.82746,-0.84408,-0.855,-0.85359,-0.86633,-0.88482,-0.90194,-0.93442,-0.96061,-0.95437,-0.94644,-0.96234,-0.97882,-0.99124,-1.0165,-1.0282,-1.0219,-1.0455,-1.0798,-1.0795,-1.081,-1.1062,-1.1232,-1.1354,-1.1559,-1.1723,-1.1872,-1.2058,-1.2224,-1.2382,-1.256,-1.2733,-1.2805,-1.2723,-1.2731,-1.303,-1.3344,-1.3494,-1.3652,-1.3784,-1.3764,-1.3723,-1.3795,-1.4003,-1.4207,-1.4235,-1.4261,-1.4429,-1.4509,-1.4509,-1.466,-1.4797,-1.4743,-1.4707,-1.4838,-1.5025,-1.5185,-1.5351,-1.5527,-1.5695,-1.5797,-1.5697,-1.5507,-1.5559,-1.5808,-1.5974,-1.6006,-1.597,-1.5981,-1.6035,-1.5911,-1.5748,-1.5863,-1.6026,-1.6,-1.597,-1.5986,-1.5998,-1.6009,-1.591,-1.5747,-1.5712,-1.5749,-1.5747,-1.5735,-1.5731,-1.5749,-1.5756,-1.5653,-1.5465,-1.5291,-1.5124,-1.4973,-1.4968,-1.5048,-1.4949,-1.4765,-1.476,-1.4694,-1.4335,-1.3941,-1.367,-1.3518,-1.351,-1.3462,-1.3282,-1.3113,-1.2891,-1.2541,-1.2186,-1.1851,-1.153,-1.1323,-1.1201,-1.1022,-1.0828,-1.0703,-1.051,-1.017,-0.98234,-0.94931,-0.91386,-0.88964,-0.87669,-0.85983,-0.84124,-0.82596,-0.80971,-0.78409,-0.74344,-0.70928,-0.69501,-0.66974,-0.63445,-0.62756,-0.62654,-0.58821,-0.54312,-0.52697,-0.50946,-0.47322,-0.44793,-0.43302,-0.41256,-0.40661,-0.40737,-0.37757,-0.34028,-0.33272,-0.32238,-0.28348,-0.25731,-0.25866,-0.24929,-0.23182,-0.23218,-0.22758,-0.20398,-0.18652,-0.17494,-0.15335,-0.13545,-0.13419,-0.13145,-0.11323,-0.10208,-0.11325,-0.11285,-0.080901,-0.0511,-0.036503,-0.018628,-0.0069656,-0.0094447,-0.0099963,-0.01018,-0.010036,0.0044687,0.024307,0.039961,0.057808,0.069134,0.064241,0.047804,0.033537,0.041702,0.061561,0.064159,0.066284,0.084704,0.091999,0.090411,0.10772,0.12316,0.10955,0.090797,0.097223,0.12111,0.13784,0.14052,0.1391,0.13927,0.13944,0.13939,0.13934,0.13923,0.13952,0.13936,0.13905,0.13973,0.13935,0.13853,0.14077,0.13921,0.12369,0.10776,0.1155,0.13519,0.13996,0.13959,0.14198,0.12923,0.11313,0.11332,0.11441,0.11574,0.13277,0.15323,0.16745,0.18479,0.19572,0.18383,0.16601,0.16297,0.1641,0.16379,0.16629,0.16161,0.16254,0.18263,0.1862,0.16538,0.15974,0.1669,0.16428,0.16228,0.16585,0.16407,0.16248,0.16639,0.16374,0.16107,0.16968,0.16192,0.14042,0.14885,0.16509,0.16265,0.176,0.18903,0.1708,0.15172,0.13408,0.11503,0.12565,0.14148,0.13892,0.15093,0.16759,0.16494,0.16395,0.1613,0.14175,0.12178,0.11118,0.1137,0.13111,0.14233,0.13937,0.13829,0.13993,0.13929,0.13951,0.13839,0.13978,0.15487,0.1773,0.18965,0.18973,0.18907,0.18826,0.1726,0.14669,0.1407,0.15914,0.16964,0.16188,0.16198,0.17003,0.15853,0.14057,0.14071,0.13478,0.11585,0.12189,0.14992,0.16386,0.16389,0.16502,0.16444,0.15173,0.12796,0.11448,0.11529,0.11206,0.1149,0.13313,0.14175,0.13924,0.14075,0.13151,0.11266,0.11114,0.1188,0.1128,0.11055,0.12809,0.14032,0.13916,0.14185,0.1359,0.11733,0.11225,0.11452,0.11348,0.12692,0.14317,0.14042,0.13619,0.1419,0.14027,0.1243,0.10983,0.11382,0.13172,0.14256,0.1393,0.13712,0.14234,0.13878,0.12131,0.11055,0.11506,0.11681,0.11083,0.11626,0.13433,0.14351,0.13744,0.12105,0.099512,0.088773,0.089748,0.087683,0.092715,0.11114,0.11887,0.11247,0.11336,0.11839,0.10948,0.091468,0.084573,0.095922,0.11339,0.11862,0.11079,0.11391,0.13354,0.13733,0.11426,0.093315,0.089023,0.089613,0.089414,0.090248,0.089467,0.08883,0.091671,0.088345,0.071894,0.051852,0.038188,0.037115,0.051615,0.067271,0.066777,0.061253,0.067166,0.067478,0.049633,0.038616,0.040057,0.03762,0.044996,0.063346,0.067176,0.064612,0.065138,0.052082,0.030773,0.015406,0.010542,0.023936,0.04005,0.040921,0.040899,0.039423,0.022642,0.010444,0.015928,0.017672,0.011285,0.017167,0.035288,0.043819,0.038841,0.038386,0.043717,0.036785,0.018697,0.011041,0.017168,0.016697,0.010321,0.020877,0.038574,0.040955,0.040883,0.040892,0.025232,0.011917,0.01478,0.016383,0.014836,0.015091,0.014332,0.017203,0.014832,-0.0022041,-0.013528,-0.0093346,-0.0078225,-0.011678,-0.0092,-0.0078247,-0.01267,-0.0083094,-0.0054004,-0.024391,-0.033605,-0.014719,-0.0051502,-0.010903,-0.010251,-0.0094078,-0.0089772,-0.0082982,-0.022444,-0.037772,-0.035529,-0.032022,-0.036185,-0.035352,-0.021258,-0.0031309,-0.0085502,-0.030597,-0.032244,-0.03441,-0.055961,-0.052641,-0.034349,-0.035952,-0.02487,-0.0096872,-0.026468,-0.037921,-0.034937,-0.051806,-0.06505,-0.058106,-0.058228,-0.054855,-0.027928,-0.0088357,-0.021423,-0.036462,-0.034651,-0.042727,-0.065219,-0.06331,-0.039803,-0.035807,-0.036362,-0.016206,-0.012526,-0.033111,-0.0369,-0.036754,-0.058312,-0.067722,-0.048152,-0.034633,-0.035616,-0.031409,-0.035158,-0.053937,-0.060325,-0.059695,-0.062665,-0.047768,-0.034127,-0.036736,-0.022038,-0.010053,-0.028777,-0.037619,-0.035385,-0.053762,-0.065736,-0.056625,-0.057193,-0.064781,-0.053676,-0.035673,-0.042059,-0.068805,-0.083847,-0.083214,-0.085834,-0.085098,-0.068768,-0.055445,-0.059143,-0.062106,-0.056031,-0.059512,-0.076817,-0.088034,-0.083793,-0.068281,-0.04693,-0.034052,-0.034115,-0.033202,-0.035689,-0.052185,-0.071697,-0.086284,-0.087895,-0.070452,-0.058253,-0.059487,-0.056527,-0.06311,-0.081781,-0.084885,-0.086722,-0.10597,-0.11502,-0.10351,-0.086442,-0.067729,-0.056234,-0.058754,-0.072081,-0.094391,-0.10899,-0.10846,-0.111,-0.10901,-0.09079,-0.081632,-0.084313,-0.082456,-0.091887,-0.11041,-0.11168,-0.10612,-0.10986,-0.11121,-0.099724,-0.081041,-0.079174,-0.10007,-0.10875,-0.10655,-0.124,-0.1327,-0.11286,-0.10404,-0.1108,-0.1096,-0.10821,-0.10853,-0.10839,-0.12203,-0.13908,-0.13502,-0.11652,-0.10594,-0.109,-0.11124,-0.10583,-0.10939,-0.12686,-0.13706,-0.13364,-0.13238,-0.1351,-0.13361,-0.13275,-0.13521,-0.13321,-0.13147,-0.14381,-0.16121,-0.1613,-0.1538,-0.16143,-0.16256,-0.14082,-0.13619,-0.1559,-0.16032,-0.16077,-0.1805,-0.19058,-0.17644,-0.15992,-0.15453,-0.16454,-0.18277,-0.1876,-0.17945,-0.18345,-0.2015,-0.2106,-0.20846,-0.20885,-0.20269,-0.18217,-0.17634,-0.19754,-0.20832,-0.20496,-0.22105,-0.23283,-0.21441,-0.20347,-0.20943,-0.20889,-0.20831,-0.20747,-0.20637,-0.2213,-0.23532,-0.23365,-0.234,-0.22955,-0.21077,-0.20319,-0.21131,-0.20933,-0.20299,-0.216,-0.23291,-0.23371,-0.23396,-0.23345,-0.2168,-0.20336,-0.20893,-0.22412,-0.24478,-0.25863,-0.2582,-0.2591,-0.25693,-0.23924,-0.22796,-0.23463,-0.2355,-0.22822,-0.23662,-0.25495
3,-0.10041,-0.068534,-0.051683,-0.066385,-0.089782,-0.084242,-0.05682,-0.056761,-0.080574,-0.084783,-0.084261,-0.1099,-0.12328,-0.10145,-0.10925,-0.1598,-0.16455,-0.11513,-0.08807,-0.071389,-0.024424,-0.0034659,-0.044623,-0.081363,-0.080587,-0.089719,-0.11177,-0.099237,-0.071918,-0.081123,-0.093302,-0.065424,-0.051324,-0.090312,-0.12102,-0.11253,-0.10834,-0.11468,-0.11227,-0.111,-0.11273,-0.1122,-0.11139,-0.1166,-0.14217,-0.14458,-0.05998,-0.263,-0.29414,-0.24183,-0.26324,-0.27621,-0.24672,-0.23279,-0.23126,-0.23888,-0.26352,-0.28637,-0.29698,-0.29283,-0.27368,-0.25151,-0.23218,-0.21118,-0.19662,-0.20316,-0.20937,-0.18812,-0.17259,-0.19177,-0.20844,-0.20218,-0.19987,-0.20487,-0.20235,-0.20067,-0.20457,-0.20231,-0.20069,-0.20166,-0.16853,-0.10304,-0.069901,-0.08372,-0.10424,-0.1241,-0.14338,-0.14507,-0.13948,-0.14276,-0.14397,-0.13982,-0.14291,-0.14564,-0.13184,-0.11003,-0.090567,-0.067201,-0.051447,-0.068412,-0.10157,-0.11198,-0.10966,-0.11753,-0.10958,-0.085636,-0.084102,-0.079184,-0.037949,-0.0030296,0.010407,0.031941,0.038285,0.0016951,-0.041674,-0.065101,-0.084809,-0.08989,-0.055469,-0.018125,-0.01748,-0.02637,-0.019706,-0.00071854,0.027487,0.037829,0.017149,-0.0064779,-0.024476,-0.027803,-0.0023467,0.00671,-0.017227,-0.015379,0.013591,0.032936,0.054809,0.069,0.048427,0.019925,0.006859,0.0057107,0.020692,0.043038,0.063176,0.077875,0.062099,0.0193,-0.009418,-0.02574,-0.047848,-0.048417,-0.011571,0.030157,0.05554,0.071744,0.072563,0.05332,0.035039,0.015997,-0.014187,-0.01877,0.004632,0.0093243,0.011144,0.033229,0.051885,0.076599,0.099302,0.083463,0.067674,0.070985,0.049873,0.042566,0.088738,0.10498,0.050942,0.00995,0.013073,0.0019811,-0.02097,-0.0085184,0.01172,0.0087399,0.019048,0.044922,0.042925,0.019227,0.0063935,0.0070904,0.020194,0.047632,0.067587,0.06817,0.070601,0.071209,0.050097,0.03935,0.063741,0.079437,0.060292,0.040082,0.037799,0.038439,0.038226,0.041258,0.034201,0.012253,-0.0093917,-0.028685,-0.049414,-0.056942,-0.048348,-0.049628,-0.071078,-0.082348,-0.057247,-0.024087,-0.027917,-0.050551,-0.042276,-0.0092488,0.0085078,-0.004858,-0.02935,-0.024419,-0.0075697,-0.040624,-0.081491,-0.052661,-0.010299,-0.01932,-0.02978,-0.015619,-0.019647,-0.042353,-0.056793,-0.078943,-0.10911,-0.10505,-0.082577,-0.096401,-0.11561,-0.08585,-0.049273,-0.065229,-0.10952,-0.12359,-0.09974,-0.082241,-0.083745,-0.078494,-0.080959,-0.1039,-0.11284,-0.11186,-0.11807,-0.099842,-0.08155,-0.11764,-0.14917,-0.11441,-0.07828,-0.093772,-0.11219,-0.095139,-0.075117,-0.0815,-0.10133,-0.12154,-0.14187,-0.16148,-0.18299,-0.20243,-0.20734,-0.19422,-0.17272,-0.165,-0.18469,-0.20266,-0.1866,-0.16349,-0.17255,-0.18306,-0.15123,-0.112,-0.1089,-0.10899,-0.081529,-0.055793,-0.051246,-0.051835,-0.050837,-0.053118,-0.051706,-0.047533,-0.0655,-0.11404,-0.1617,-0.17167,-0.14076,-0.11286,-0.1164,-0.11135,-0.1007,-0.13952,-0.1724,-0.1347,-0.094103,-0.081141,-0.059228,-0.049658,-0.051575,-0.045955,-0.072491,-0.11399,-0.11531,-0.11719,-0.14392,-0.13299,-0.079119,-0.051615,-0.070156,-0.095683,-0.11393,-0.13579,-0.14159,-0.10744,-0.061295,-0.053062,-0.086042,-0.11163,-0.10701,-0.11504,-0.15695,-0.18428,-0.16943,-0.14634,-0.14073,-0.14243,-0.14229,-0.1424,-0.14218,-0.14166,-0.14388,-0.14108,-0.12192,-0.095307,-0.081023,-0.08094,-0.082768,-0.081725,-0.081408,-0.082617,-0.081668,-0.081132,-0.083456,-0.081181,-0.0793,-0.092734,-0.11616,-0.13773,-0.14098,-0.10286,-0.055971,-0.067921,-0.12104,-0.1433,-0.13864,-0.14308,-0.12576,-0.082183,-0.089238,-0.13696,-0.12474,-0.074234,-0.07419,-0.093661,-0.075842,-0.052663,-0.061291,-0.087618,-0.10841,-0.11644,-0.10895,-0.08777,-0.073263,-0.088452,-0.13093,-0.15773,-0.13348,-0.10961,-0.13205,-0.13925,-0.11432,-0.12421,-0.14312,-0.11895,-0.11196,-0.15407,-0.17522,-0.15494,-0.13975,-0.12128,-0.075268,-0.050624,-0.074419,-0.10023,-0.11738,-0.13947,-0.13663,-0.10019,-0.058904,-0.03919,-0.062459,-0.10522,-0.12861,-0.14958,-0.17154,-0.16041,-0.13765,-0.14067,-0.13665,-0.099545,-0.08007,-0.10011,-0.11492,-0.13485,-0.17457,-0.15784,-0.091108,-0.062078,-0.042853,-0.020176,-0.054071,-0.084944,-0.057179,-0.043545,-0.054491,-0.051741,-0.06521,-0.085325,-0.059155,-0.02089,-0.029665,-0.051134,-0.048171,-0.059588,-0.081632,-0.067226,-0.048421,-0.05213,-0.037807,-0.01633,-0.020385,-0.026104,-0.017094,0.0044383,0.042594,0.083283,0.1233,0.18057,0.24033,0.27661,0.31075,0.35795,0.37208,0.34499,0.34902,0.39603,0.42477,0.4355,0.45837,0.48064,0.49838,0.51934,0.53861,0.56099,0.58054,0.58389,0.57663,0.5534,0.53626,0.57285,0.61145,0.5795,0.53839,0.54962,0.57362,0.58446,0.5822,0.5595,0.55471,0.608,0.67974,0.70465,0.67384,0.62768,0.60384,0.61094,0.63264,0.64385,0.64178,0.65333,0.69166,0.7316,0.75262,0.77418,0.82182,0.88529,0.92979,0.94337,0.95691,0.99,1.0038,0.98022,0.97937,1.0342,1.0864,1.0874,1.0639,1.0585,1.0672,1.0639,1.058,1.0739,1.0945,1.0945,1.0967,1.1255,1.1657,1.2034,1.2466,1.2905,1.3107,1.3049,1.301,1.308,1.3047,1.2968,1.3282,1.3995,1.4338,1.4029,1.3976,1.458,1.5062,1.5166,1.519,1.5026,1.486,1.5044,1.5211,1.516,1.531,1.5634,1.577,1.591,1.6325,1.6688,1.669,1.6689,1.7009,1.7259,1.722,1.7288,1.734,1.7114,1.7338,1.8034,1.811,1.787,1.8106,1.8001,1.7155,1.648,1.6234,1.6036,1.5829,1.5632,1.5436,1.525,1.4881,1.4128,1.3289,1.2612,1.1672,1.0579,1.0124,0.99896,0.94019,0.85952,0.77801,0.69289,0.64843,0.63901,0.60057,0.54441,0.51823,0.50176,0.45515,0.38789,0.32795,0.26319,0.17026,0.085705,0.041499,-0.0017148,-0.046188,-0.050926,-0.056652,-0.099636,-0.13042,-0.14778,-0.19021,-0.21666,-0.19719,-0.19389,-0.23468,-0.26786,-0.28573,-0.31487,-0.3203,-0.29588,-0.30226,-0.32723,-0.32553,-0.3209,-0.32317,-0.3215,-0.33635,-0.3566,-0.35523,-0.35062,-0.35417,-0.35386,-0.35231,-0.35353,-0.35342,-0.35293,-0.35326,-0.35313,-0.3543,-0.35075,-0.32912,-0.3113,-0.33195,-0.35421,-0.33553,-0.32422,-0.34842,-0.3581,-0.35366,-0.37685,-0.39648,-0.3734,-0.3524,-0.36965,-0.38521,-0.38264,-0.39782,-0.41569,-0.39137,-0.3552,-0.3586,-0.38096,-0.38569,-0.38304,-0.3842,-0.37046,-0.34636,-0.34937,-0.37535,-0.38277,-0.38163,-0.40134,-0.41533,-0.413,-0.42782,-0.44906,-0.44608,-0.42678,-0.40778,-0.4106,-0.43687,-0.43934,-0.41543,-0.42281,-0.45293,-0.4474,-0.41933,-0.41474,-0.41529,-0.39337,-0.3843,-0.4102,-0.42573,-0.39858,-0.35685,-0.34181,-0.36717,-0.41008,-0.42627,-0.39765,-0.35626,-0.34393,-0.36255,-0.38246,-0.38712,-0.3774,-0.35529,-0.34366,-0.36506,-0.38373,-0.366,-0.34885,-0.35302,-0.35397,-0.35356,-0.35372,-0.34883,-0.3619,-0.38297,-0.38393,-0.38518,-0.38432,-0.36223,-0.35189,-0.35381,-0.33417,-0.31958,-0.32335,-0.30731,-0.28492,-0.29256,-0.30092,-0.28064,-0.26309,-0.26508,-0.25404,-0.233,-0.24431,-0.27874,-0.29313,-0.29036,-0.29931,-0.32312,-0.34455,-0.36148,-0.38362,-0.37858,-0.31558,-0.26291,-0.2893,-0.36075,-0.44503,-0.53243,-0.58517,-0.62595,-0.70334,-0.78144,-0.83739,-0.89709,-0.95381,-1.0195,-1.118,-1.2152,-1.2911,-1.3548,-1.4008,-1.4742,-1.627,-1.8009,-1.9271,-2.0271,-2.1237,-2.1963,-2.2371,-2.2788,-2.3487,-2.4018,-2.3913,-2.3742,-2.3825,-2.3368,-2.2123,-2.0565,-1.8698,-1.6638,-1.4796,-1.3134,-1.1534,-0.98208,-0.75334,-0.47767,-0.21575,0.049561,0.37628,0.72632,1.0195,1.2731,1.5501,1.8432,2.1205,2.3839,2.6167,2.8055,3.0293,3.3617,3.7331,4.0562,4.3635,4.6981,5.0238,5.3105,5.559,5.7465,5.8684,5.9613,6.0109,5.9639,5.8351,5.6564,5.4346,5.2264,5.1134,5.1103,5.1775,5.246,5.2288,5.1097,4.9968,5.002,5.1353,5.3721,5.6833,5.9595,6.0745,5.9974,5.7318,5.2764,4.6811,3.9969,3.217,2.3547,1.4961,0.72684,0.058746,-0.53364,-1.0396,-1.4623,-1.8585,-2.2266,-2.4921,-2.6444,-2.7245,-2.7566,-2.8225,-3.0051,-3.2352,-3.4018,-3.5008,-3.5549,-3.5375,-3.4346,-3.2827,-3.1141,-2.9321,-2.748,-2.5668,-2.365,-2.1559,-2.014,-1.9782,-1.9995,-2.0098,-1.9888,-1.9511,-1.9065,-1.8469,-1.7597,-1.6439,-1.522,-1.427,-1.3589,-1.2985,-1.2593,-1.2609,-1.283,-1.3046,-1.3196,-1.2982,-1.2339,-1.1881,-1.1927,-1.2241,-1.2739,-1.315,-1.317,-1.3244,-1.3696,-1.4065,-1.4022,-1.359,-1.2928,-1.2463,-1.2305,-1.2009,-1.1495,-1.1119,-1.0713,-0.97656,-0.85187,-0.77939,-0.78089,-0.80335,-0.81123,-0.79402,-0.72722,-0.65663,-0.66635,-0.68783,-0.64313,-0.62778,-0.65484,-0.62259,-0.58986,-0.621,-0.62213,-0.57732,-0.56375,-0.56876,-0.56001,-0.56296,-0.57413,-0.54674,-0.48077,-0.42857,-0.40632,-0.38612,-0.35179,-0.29907,-0.23758,-0.20081,-0.21353,-0.25938,-0.27958,-0.24126,-0.20333,-0.21717,-0.23806,-0.23333,-0.23138,-0.2294,-0.20464,-0.17826,-0.17085,-0.1722,-0.1858,-0.21737,-0.23308,-0.2141,-0.1982,-0.2024,-0.20347,-0.20283,-0.20291,-0.18623,-0.16072,-0.14273,-0.13784,-0.14713,-0.14282,-0.11863,-0.11206,-0.11233,-0.10419,-0.13046,-0.17221,-0.17591,-0.17294,-0.1726,-0.13514,-0.099105,-0.11222,-0.13747,-0.14273,-0.14236,-0.14318,-0.1404,-0.14247,-0.16006,-0.18552,-0.2028,-0.19117,-0.14655,-0.11174,-0.11014,-0.11164,-0.11235,-0.11609,-0.10418,-0.11355,-0.16082,-0.16339,-0.10991,-0.09622,-0.13791,-0.17373,-0.19267,-0.21633,-0.23304,-0.2177,-0.18298,-0.17329,-0.20913,-0.26182,-0.2947,-0.31396,-0.33288,-0.32061,-0.27551,-0.26222,-0.2965,-0.32268,-0.31495,-0.29075,-0.26823,-0.25961,-0.26341,-0.26419,-0.26116,-0.26287,-0.24726,-0.20871,-0.20526,-0.24785,-0.27691,-0.29603,-0.32135,-0.31166,-0.29276,-0.31333,-0.32883,-0.32309,-0.34097,-0.37205,-0.38353,-0.36659,-0.32469,-0.28949,-0.27019,-0.25106,-0.26961,-0.33428,-0.36763,-0.34925,-0.3282,-0.31179,-0.28924,-0.26823,-0.25637,-0.26606,-0.28836,-0.29436,-0.29414,-0.31465,-0.33234,-0.3198,-0.31648,-0.33746,-0.31314,-0.24655,-0.22345,-0.23477,-0.25059,-0.30645,-0.35842,-0.33713,-0.29817,-0.29366,-0.29349,-0.29888,-0.33109,-0.35422,-0.33908,-0.3212,-0.32317,-0.31326,-0.28814,-0.28736,-0.31176,-0.32284,-0.30194,-0.27037,-0.26463,-0.28609,-0.31091,-0.32413,-0.3037,-0.2633,-0.27107,-0.31672,-0.31821,-0.28503,-0.26705,-0.23783,-0.19235,-0.19321,-0.24056,-0.26487,-0.26174,-0.27687,-0.29617,-0.29422,-0.29269,-0.29064,-0.26888,-0.24349,-0.23001,-0.23073,-0.23962,-0.22375,-0.17999,-0.16008,-0.18083,-0.20173,-0.19272,-0.16238,-0.14248,-0.1537,-0.18066,-0.20037,-0.20598,-0.20023,-0.20095,-0.20882,-0.19503,-0.1737,-0.17441,-0.16653,-0.14384,-0.15218,-0.18164,-0.19961,-0.22999,-0.27911,-0.29557,-0.26235,-0.21727,-0.17735,-0.15834,-0.18618,-0.20513,-0.1657,-0.13813,-0.14306,-0.12232,-0.11741,-0.1663,-0.18859,-0.15916,-0.14232,-0.14411,-0.14196,-0.16693,-0.21929,-0.22618,-0.17742,-0.15679,-0.18645,-0.20319,-0.18599,-0.16424,-0.1444,-0.12155,-0.10914,-0.11178,-0.11263,-0.11462,-0.13948,-0.16943,-0.16658,-0.14387,-0.12432,-0.10368,-0.10988,-0.1559,-0.16858,-0.11594,-0.076236,-0.097224,-0.14026,-0.16779,-0.16924,-0.14376,-0.12962,-0.1591,-0.1733,-0.13282,-0.10525,-0.11197,-0.11068,-0.11999,-0.1421,-0.12827,-0.10324,-0.11178,-0.11897,-0.10462,-0.11176,-0.13992,-0.13003,-0.082449,-0.068016,-0.099507,-0.11223,-0.090365,-0.079686,-0.082026,-0.07908,-0.0903,-0.11236,-0.13088,-0.15285,-0.14174,-0.093301,-0.086809,-0.11249,-0.11046,-0.12691,-0.17354,-0.18211,-0.16001,-0.14169,-0.12005,-0.10832,-0.11235,-0.11269,-0.11216,-0.11203,-0.10931,-0.12066,-0.14352,-0.16317,-0.18509,-0.20327,-0.20427,-0.20194,-0.20232,-0.18464,-0.16062,-0.17516,-0.21943,-0.23884,-0.23227,-0.23163,-0.23274,-0.23306,-0.23561,-0.22251,-0.20085,-0.18228,-0.15594,-0.14215,-0.14486,-0.13467,-0.14596,-0.19281,-0.1931,-0.13547,-0.091565,-0.068425,-0.050415,-0.049618,-0.052826,-0.052281,-0.069924,-0.10203,-0.11063,-0.072285,-0.023447,-0.025168,-0.052271,-0.031312,0.01315,0.016141,-0.0066507,-0.024131,-0.043812,-0.067115,-0.083206,-0.067405,-0.016449,0.0084522,-0.014094,-0.026583,-0.021142,-0.02279,-0.011641,0.012343,0.03094,0.062545,0.10607,0.12777,0.12861,0.12943,0.12907,0.13523,0.16679,0.19175,0.16572,0.12181,0.10178,0.094342,0.10263,0.12512,0.12986,0.13116,0.15318,0.165,0.15743,0.15753,0.16168,0.15817,0.15801,0.1616,0.15775,0.15655,0.17323,0.1928,0.19276,0.17559,0.15375,0.13298,0.12414,0.13133,0.13154,0.12283,0.1335,0.13575,0.094623,0.065736,0.069772,0.052962,0.038785,0.062918,0.075736,0.066305,0.067508,0.070804,0.066808,0.046682,0.0025057,-0.025868,-0.022733,-0.022422,-0.018102,0.0045071,0.013913,0.0062455,0.0073627,0.01083,0.0071926,0.0076465,0.011552,0.004218,-0.017806,-0.028646,-0.018792,-0.041991,-0.10071,-0.10339,-0.056468,-0.058506,-0.089993,-0.084849,-0.075438,-0.085529,-0.083222,-0.086713,-0.13093,-0.17094,-0.15957,-0.13688,-0.1408,-0.14643,-0.13779,-0.11652,-0.076552,-0.043123,-0.048749,-0.073535,-0.08295,-0.081543,-0.094414,-0.12363,-0.14207,-0.13013,-0.09983,-0.081723,-0.1064,-0.16718,-0.20276,-0.17383,-0.12511,-0.11142,-0.12809,-0.15189,-0.17133,-0.17608,-0.16948,-0.17143,-0.19118,-0.20451,-0.17633,-0.12799,-0.10631,-0.084907,-0.03681,-0.026276,-0.078158,-0.11604,-0.099098,-0.054728,-0.0092334,0.015927,0.0094631,-0.012266,-0.025294,-0.022052,-0.018027,-0.026066,-0.022571,0.014925,0.051366,0.039741,0.0094226,0.017964,0.038518,0.022491,0.0016226,0.0081919,0.013635,-0.0001813,-0.021439,-0.028963,-0.0098242,0.0084027,0.0070891,0.01567,0.038576,0.057358,0.083023,0.098907,0.064755,0.020827,0.039151,0.089236,0.094035,0.068458,0.065591,0.066675,0.037649,-0.0043132,-0.037996,-0.051753,-0.021548,0.04743,0.099864,0.090379,0.040414,0.0078201,0.005674,0.014284,0.040289,0.067387,0.063226,0.07048,0.1154,0.12876,0.096865,0.074988,0.057562,0.03805,0.05311,0.087781,0.098854,0.096105,0.10863,0.13056,0.13504,0.11634,0.097941,0.096329,0.10209,0.097822,0.07861,0.05459,0.037448,0.034849,0.048585,0.071334,0.093577,0.097752,0.063168,0.016629,0.012018,0.042436,0.064768,0.07207,0.067174,0.046505,0.031492,0.040969,0.061441,0.08152,0.10129,0.10537,0.076794,0.03282,0.0098367,0.0091792,0.0086237,0.025542,0.063627,0.065304,0.038479,0.060098,0.10373,0.10387,0.094956,0.098717,0.079367,0.049995,0.036898,0.018998,-0.020265,-0.055691,-0.038827,0.018425,0.03792,0.032085,0.069794,0.099966,0.076364,0.064477,0.067606,0.045379,0.033075,0.039761,0.038884,0.040829,0.03565,0.013859,-0.0020987,-0.030781,-0.075872,-0.069537,-0.0072856,0.015776,-0.025764,-0.054349,-0.050992,-0.064696,-0.085158,-0.084089,-0.073146,-0.041104,0.0029864,0.0025994,-0.028242,-0.027332,-0.0017211,0.0083757,-0.012432,-0.056061,-0.086799,-0.084597,-0.077061,-0.084944,-0.086014,-0.054334,-0.012054,-0.013562,-0.059743,-0.082788,-0.058165,-0.040905,-0.059227,-0.079476,-0.092801,-0.12256,-0.14386,-0.11483,-0.07194,-0.07554,-0.11693,-0.14879,-0.14554,-0.13264,-0.1516,-0.17294,-0.15529,-0.14113,-0.14427,-0.1136,-0.07131,-0.076483,-0.11661,-0.15101,-0.14742,-0.10431,-0.079125,-0.10547,-0.14866,-0.18299,-0.20162,-0.20257,-0.2036,-0.20354,-0.19682,-0.2109,-0.23226,-0.2195,-0.19441,-0.17552,-0.14946,-0.14558,-0.16992,-0.17847,-0.1666,-0.14519,-0.12914,-0.16031,-0.20171,-0.17587,-0.12552,-0.11245
3,0.083505,0.079466,0.07554,0.083133,0.0796,0.061685,0.060065,0.078609,0.095152,0.10466,0.10122,0.083843,0.081827,0.10073,0.10772,0.089041,0.057475,0.045298,0.079391,-0.70692,-0.75686,-0.60978,-0.68577,-0.70658,-0.6231,-0.61988,-0.62724,-0.61397,-0.61967,-0.61725,-0.63088,-0.66385,-0.66859,-0.65622,-0.64063,-0.6111,-0.58495,-0.57568,-0.57433,-0.57658,-0.57565,-0.57301,-0.57951,-0.57483,-0.54415,-0.52485,-0.53259,-0.52351,-0.49239,-0.48932,-0.49767,-0.46195,-0.42151,-0.42135,-0.41547,-0.4011,-0.42659,-0.46205,-0.46611,-0.46324,-0.47336,-0.48998,-0.50565,-0.5125,-0.50958,-0.49634,-0.47518,-0.46693,-0.48131,-0.49297,-0.48783,-0.49772,-0.52948,-0.52936,-0.49576,-0.48703,-0.48676,-0.45656,-0.43197,-0.4207,-0.39114,-0.36464,-0.35636,-0.34197,-0.32776,-0.33909,-0.38139,-0.43183,-0.44269,-0.41118,-0.39301,-0.40291,-0.4052,-0.38622,-0.35067,-0.30536,-0.27337,-0.27154,-0.28688,-0.29708,-0.28885,-0.26,-0.22406,-0.20219,-0.20144,-0.21367,-0.22872,-0.23085,-0.20773,-0.17834,-0.17642,-0.20307,-0.23091,-0.24569,-0.25153,-0.24524,-0.21615,-0.17831,-0.15812,-0.14436,-0.12912,-0.14626,-0.18007,-0.16884,-0.13212,-0.11863,-0.10943,-0.091322,-0.077327,-0.061546,-0.050192,-0.050606,-0.058404,-0.078907,-0.080906,-0.043073,-0.033663,-0.068147,-0.069082,-0.049232,-0.066741,-0.084252,-0.06729,-0.051683,-0.061092,-0.075932,-0.060543,-0.019953,-0.011252,-0.044274,-0.068068,-0.07623,-0.092342,-0.095082,-0.060633,-0.015295,0.0085724,0.014732,0.014749,0.0042619,-0.012453,-0.011738,0.014957,0.041437,0.039101,0.01868,0.016233,0.033329,0.032191,0.0038384,-0.0099891,0.014219,0.041962,0.038676,0.019135,0.015273,0.032284,0.043849,0.026782,-0.003753,-0.030679,-0.064547,-0.093786,-0.088802,-0.066241,-0.053586,-0.032833,0.006629,0.034011,0.036441,0.036243,0.036449,0.02269,0.013038,0.032116,0.04761,0.02213,-0.006905,-0.0068545,-0.013416,-0.029575,-0.019551,-0.0045653,-0.007934,0.00050232,0.020279,0.015549,-0.0030571,-0.010219,-0.027308,-0.053097,-0.041244,-0.0097433,-0.0067022,-0.0042608,0.012749,0.014643,0.015706,0.014908,-0.014842,-0.031721,-0.010027,0.0091923,0.015985,0.014161,0.007721,0.023724,0.035898,0.018426,0.016734,0.014866,-0.021786,-0.018558,0.033804,0.035829,-0.0033987,-0.0087348,0.0085599,0.015257,0.013768,0.0031989,-0.021001,-0.051165,-0.080819,-0.10717,-0.11742,-0.10583,-0.084114,-0.052293,-0.017902,-0.0036835,0.013469,0.058841,0.088619,0.079096,0.072555,0.091266,0.12308,0.15571,0.17154,0.16634,0.16273,0.17397,0.18853,0.19174,0.18231,0.16592,0.13945,0.10355,0.078669,0.075927,0.084468,0.10193,0.13172,0.15342,0.14349,0.11331,0.089698,0.078782,0.077313,0.081144,0.078887,0.086197,0.12828,0.16785,0.16897,0.16982,0.18966,0.19469,0.17385,0.14219,0.122,0.1318,0.14471,0.13028,0.12129,0.14778,0.16912,0.15473,0.14513,0.16168,0.16357,0.14258,0.13861,0.15651,0.16648,0.15398,0.12929,0.12445,0.16529,0.22046,0.22991,0.19813,0.18252,0.18873,0.17643,0.15044,0.1456,0.16061,0.17516,0.19125,0.22024,0.24841,0.25315,0.25056,0.26455,0.27623,0.27499,0.27883,0.27268,0.24221,0.21822,0.20828,0.19248,0.18881,0.21638,0.24818,0.25665,0.25374,0.26672,0.29786,0.32209,0.32277,0.30853,0.29558,0.29467,0.30714,0.32138,0.32216,0.30858,0.29561,0.29551,0.30093,0.29469,0.27844,0.27823,0.30389,0.32069,0.30672,0.29786,0.31385,0.33032,0.3449,0.36068,0.36363,0.36269,0.34995,0.30589,0.26984,0.25774,0.23724,0.23566,0.26784,0.29399,0.33195,0.38007,0.37222,0.33188,0.31923,0.31857,0.3203,0.32128,0.3099,0.3311,0.39471,0.42279,0.39685,0.36785,0.34227,0.31017,0.29582,0.31573,0.35134,0.37974,0.4065,0.43595,0.43448,0.39131,0.35493,0.34315,0.32732,0.32056,0.35359,0.40434,0.4345,0.43188,0.40481,0.3768,0.36377,0.36154,0.36345,0.36328,0.36124,0.36412,0.3638,0.35848,0.36867,0.38458,0.36742,0.32784,0.3174,0.33534,0.34023,0.33967,0.35635,0.36118,0.3436,0.32794,0.31443,0.3168,0.34094,0.32954,0.28023,0.26562,0.28098,0.27721,0.26384,0.24174,0.17612,0.080533,0.017763,0.012458,0.021199,0.0029527,-0.02764,-0.045546,-0.056381,-0.071909,-0.097228,-0.13233,-0.15965,-0.17166,-0.19728,-0.24505,-0.27271,-0.26408,-0.26816,-0.32029,-0.37856,-0.38109,-0.34541,-0.3375,-0.35668,-0.36112,-0.35333,-0.33701,-0.29703,-0.24758,-0.20601,-0.19216,-0.21964,-0.22728,-0.19922,-0.22801,-0.29095,-0.29692,-0.29452,-0.31363,-0.31177,-0.32421,-0.35718,-0.36886,-0.39849,-0.44463,-0.44815,-0.45039,-0.48847,-0.50091,-0.46999,-0.44485,-0.44176,-0.44883,-0.46698,-0.49666,-0.51726,-0.51013,-0.50236,-0.52267,-0.53193,-0.5031,-0.47622,-0.46656,-0.47363,-0.5068,-0.5093,-0.46938,-0.48657,-0.55667,-0.60092,-0.64863,-0.70906,-0.72866,-0.72844,-0.72804,-0.69967,-0.67446,-0.68601,-0.68133,-0.63065,-0.59712,-0.61078,-0.62274,-0.61923,-0.61944,-0.61571,-0.62068,-0.64,-0.62438,-0.57135,-0.54806,-0.56539,-0.576,-0.5854,-0.61795,-0.64291,-0.67528,-0.77073,-0.86648,-0.89631,-0.91982,-0.94855,-0.94625,-0.95926,-0.9935,-0.9948,-0.99036,-1.0164,-1.0357,-1.0216,-0.98465,-0.92845,-0.85595,-0.78486,-0.72565,-0.67537,-0.63592,-0.59527,-0.53106,-0.45531,-0.38417,-0.29785,-0.18562,-0.066821,0.030816,0.08552,0.11255,0.15066,0.19469,0.21032,0.21225,0.23856,0.27051,0.28042,0.3055,0.36653,0.40746,0.40525,0.41635,0.46178,0.49937,0.52555,0.57509,0.63623,0.67993,0.7129,0.73813,0.75176,0.76736,0.77812,0.763,0.7394,0.73422,0.735,0.72979,0.73721,0.75333,0.75579,0.75646,0.75751,0.74878,0.76213,0.79454,0.7999,0.80275,0.83458,0.85792,0.86847,0.89915,0.92852,0.92837,0.92807,0.93156,0.89405,0.8466,0.85129,0.86589,0.86294,0.87986,0.88289,0.86368,0.89384,0.9374,0.91778,0.8783,0.86054,0.84559,0.83882,0.84427,0.84338,0.84779,0.87337,0.888,0.87127,0.86789,0.90127,0.92919,0.92653,0.91092,0.90297,0.91306,0.92841,0.93846,0.96192,0.99303,0.9915,0.96576,0.96934,1.0044,1.0153,0.981,0.9419,0.92759,0.92936,0.94043,0.95728,0.9555,0.91752,0.87233,0.86306,0.88152,0.88316,0.8662,0.87067,0.89417,0.89005,0.85683,0.83961,0.84283,0.84129,0.84839,0.88245,0.91081,0.89843,0.86733,0.85787,0.87093,0.88584,0.8896,0.88358,0.88593,0.89331,0.87469,0.84466,0.84065,0.83976,0.82238,0.82589,0.85551,0.86568,0.84895,0.84399,0.86364,0.87374,0.85145,0.82262,0.80715,0.7909,0.77798,0.77798,0.77459,0.7771,0.79547,0.79431,0.7781,0.77811,0.77121,0.75617,0.75667,0.7507,0.75522,0.79968,0.82839,0.8216,0.82202,0.81208,0.77828,0.74765,0.7203,0.71225,0.72164,0.68563,0.62502,0.62415,0.67359,0.7345,0.78884,0.79184,0.75563,0.75641,0.80579,0.86624,0.92579,0.97373,0.99646,1.0087,1.0279,1.0398,1.0266,1.0128,1.0417,1.1029,1.1435,1.1487,1.1345,1.1225,1.1517,1.2148,1.25,1.2585,1.2554,1.1892,1.0769,1.0088,0.98487,0.94896,0.88218,0.7874,0.68227,0.56077,0.39025,0.19443,0.018361,-0.14636,-0.30573,-0.45927,-0.65165,-0.90773,-1.1849,-1.4561,-1.7408,-2.0225,-2.2657,-2.5022,-2.7644,-3.0118,-3.2178,-3.4048,-3.6002,-3.8385,-4.1056,-4.3289,-4.5061,-4.6939,-4.8795,-5.0247,-5.1419,-5.2405,-5.2952,-5.286,-5.2218,-5.1216,-4.9922,-4.8379,-4.6456,-4.3634,-3.9912,-3.6185,-3.2838,-2.9531,-2.6448,-2.3841,-2.1201,-1.8367,-1.5971,-1.4378,-1.349,-1.318,-1.3338,-1.3644,-1.3337,-1.1607,-0.82826,-0.37993,0.13543,0.69536,1.28,1.8414,2.3354,2.7584,3.133,3.4617,3.7113,3.8927,4.0704,4.2222,4.2764,4.2679,4.2413,4.166,4.0812,4.067,4.0908,4.0945,4.0947,4.0816,4.0046,3.8985,3.8255,3.7412,3.6205,3.5258,3.4315,3.2673,3.0936,2.9753,2.8607,2.7211,2.6047,2.5211,2.422,2.2849,2.1236,1.9637,1.8351,1.7358,1.6438,1.5613,1.4893,1.4364,1.4374,1.4714,1.4725,1.4449,1.4325,1.4266,1.3978,1.3526,1.324,1.3243,1.3251,1.3098,1.2991,1.3009,1.3018,1.3009,1.3019,1.292,1.2741,1.2775,1.2759,1.2016,1.0957,1.042,0.99751,0.91994,0.86207,0.83388,0.82046,0.84126,0.87564,0.90426,0.93132,0.91831,0.87017,0.84764,0.83583,0.80359,0.78126,0.77555,0.77626,0.80003,0.82995,0.82466,0.78437,0.73926,0.7137,0.70155,0.67909,0.64943,0.62306,0.58493,0.54057,0.52822,0.54344,0.53933,0.51853,0.51733,0.51689,0.49687,0.50059,0.53533,0.54575,0.531,0.53624,0.55556,0.55597,0.53878,0.52194,0.51209,0.51508,0.53099,0.53656,0.51707,0.49592,0.49708,0.51491,0.53136,0.54195,0.55865,0.57718,0.58049,0.58111,0.58546,0.57194,0.55939,0.5739,0.57964,0.55987,0.5429,0.53281,0.5374,0.56708,0.58657,0.58135,0.57914,0.58159,0.58132,0.58204,0.57835,0.5814,0.59841,0.59937,0.58108,0.57597,0.58844,0.60337,0.60719,0.59662,0.60378,0.63655,0.64541,0.62431,0.6195,0.62905,0.62455,0.61994,0.63431,0.64674,0.62433,0.57351,0.53653,0.53279,0.54388,0.56069,0.58888,0.61705,0.62446,0.59992,0.55269,0.51373,0.49645,0.49428,0.51854,0.5528,0.55843,0.56048,0.57834,0.57671,0.58406,0.6424,0.69069,0.68925,0.68622,0.69429,0.68966,0.69759,0.74209,0.77961,0.7685,0.73442,0.70987,0.69335,0.6918,0.71617,0.74773,0.76083,0.7543,0.74014,0.71857,0.68569,0.66519,0.68868,0.74121,0.77458,0.77277,0.75159,0.70974,0.65293,0.62338,0.63717,0.66388,0.69655,0.7423,0.76776,0.75137,0.73352,0.73859,0.72987,0.69729,0.69044,0.7167,0.7195,0.69311,0.69388,0.7257,0.74033,0.73164,0.71856,0.68665,0.63745,0.61943,0.64799,0.66888,0.63937,0.59286,0.58234,0.59861,0.61132,0.62961,0.64654,0.63706,0.62229,0.60974,0.57812,0.55743,0.56016,0.54827,0.5367,0.53964,0.51837,0.48829,0.47649,0.44498,0.3956,0.3816,0.39869,0.40673,0.40554,0.41563,0.4318,0.432,0.40845,0.37694,0.36313,0.36069,0.32715,0.26526,0.2319,0.23261,0.21773,0.17545,0.13397,0.1058,0.085659,0.079606,0.096414,0.11124,0.091461,0.060539,0.055925,0.054163,0.022366,-0.023973,-0.062862,-0.091371,-0.10881,-0.12172,-0.1372,-0.1357,-0.10637,-0.092861,-0.1209,-0.14218,-0.13837,-0.16299,-0.22843,-0.28556,-0.31792,-0.34387,-0.3571,-0.35559,-0.35894,-0.35798,-0.36604,-0.42874,-0.48674,-0.46501,-0.44474,-0.48336,-0.49054,-0.45478,-0.47986,-0.5445,-0.54517,-0.52942,-0.58042,-0.63435,-0.65889,-0.71459,-0.75916,-0.73266,-0.72038,-0.77604,-0.8153,-0.80952,-0.82804,-0.85888,-0.83983,-0.80066,-0.77448,-0.74984,-0.76127,-0.81193,-0.84745,-0.8648,-0.86133,-0.82721,-0.81633,-0.8367,-0.83945,-0.83719,-0.83818,-0.82874,-0.85818,-0.94209,-1.0122,-1.0459,-1.0763,-1.1083,-1.1262,-1.1223,-1.0957,-1.0631,-1.0558,-1.0715,-1.0771,-1.0778,-1.0916,-1.1032,-1.121,-1.1539,-1.1654,-1.1652,-1.1827,-1.1772,-1.1438,-1.1458,-1.1836,-1.2091,-1.2117,-1.2006,-1.1872,-1.1948,-1.221,-1.2309,-1.2258,-1.2388,-1.2527,-1.238,-1.228,-1.2535,-1.2955,-1.3413,-1.3846,-1.3931,-1.367,-1.3624,-1.3814,-1.3741,-1.3618,-1.3667,-1.3394,-1.2949,-1.29,-1.2967,-1.2967,-1.3231,-1.3489,-1.3389,-1.3428,-1.3877,-1.4044,-1.3712,-1.3601,-1.3856,-1.4123,-1.4472,-1.4714,-1.4666,-1.4884,-1.5401,-1.5596,-1.5493,-1.5348,-1.5181,-1.5076,-1.4901,-1.4686,-1.4845,-1.5166,-1.5181,-1.5057,-1.4902,-1.471,-1.4773,-1.493,-1.479,-1.4571,-1.4479,-1.445,-1.4582,-1.4704,-1.4433,-1.3984,-1.3835,-1.398,-1.4101,-1.4029,-1.3859,-1.3844,-1.41,-1.4413,-1.4527,-1.4471,-1.4327,-1.4135,-1.4046,-1.4056,-1.3969,-1.3805,-1.3663,-1.3451,-1.3107,-1.267,-1.2191,-1.1811,-1.1653,-1.1648,-1.1642,-1.1633,-1.1672,-1.1625,-1.147,-1.1333,-1.1179,-1.1153,-1.1383,-1.1394,-1.1196,-1.142,-1.1642,-1.1179,-1.0638,-1.0567,-1.0585,-1.0392,-1.003,-0.97213,-0.96626,-0.96799,-0.96701,-0.9726,-0.96381,-0.94644,-0.95804,-0.96652,-0.93493,-0.89923,-0.87439,-0.84465,-0.81581,-0.78555,-0.76942,-0.79368,-0.81903,-0.81656,-0.81741,-0.80955,-0.76272,-0.7172,-0.70445,-0.69023,-0.66571,-0.66589,-0.68266,-0.68562,-0.68421,-0.67065,-0.61749,-0.56296,-0.55239,-0.55714,-0.55126,-0.55212,-0.55893,-0.54696,-0.51619,-0.48562,-0.45672,-0.42738,-0.4068,-0.40065,-0.41766,-0.44404,-0.43816,-0.42178,-0.44603,-0.46929,-0.4495,-0.42689,-0.42177,-0.42227,-0.42622,-0.41724,-0.40188,-0.40258,-0.3959,-0.38004,-0.38205,-0.36949,-0.32077,-0.28041,-0.26697,-0.26875,-0.28351,-0.29304,-0.29132,-0.31047,-0.34937,-0.35938,-0.33084,-0.30771,-0.31221,-0.32749,-0.33876,-0.3371,-0.31194,-0.28227,-0.28926,-0.31451,-0.30545,-0.29162,-0.29993,-0.27657,-0.24808,-0.27532,-0.29187,-0.27124,-0.27109,-0.25978,-0.22744,-0.2443,-0.28447,-0.29215,-0.29283,-0.28323,-0.23065,-0.16399,-0.12662,-0.11734,-0.1254,-0.15506,-0.20234,-0.24987,-0.28039,-0.27162,-0.21716,-0.1588,-0.13924,-0.14066,-0.13795,-0.15985,-0.2097,-0.22792,-0.20525,-0.18768,-0.17674,-0.16126,-0.14711,-0.13185,-0.13899,-0.17378,-0.17679,-0.13929,-0.11739,-0.12063,-0.13935,-0.17187,-0.18367,-0.1607,-0.12936,-0.1089,-0.11783,-0.1502,-0.1639,-0.1611,-0.17421,-0.18764,-0.18256,-0.17032,-0.14295,-0.093755,-0.067082,-0.091143,-0.11784,-0.11691,-0.12383,-0.13952,-0.12911,-0.10145,-0.07189,-0.039654,-0.02525,-0.030334,-0.03034,-0.033682,-0.053278,-0.060577,-0.029084,0.016285,0.02433,-0.0039167,-0.0062241,0.038538,0.070713,0.054877,0.035247,0.040237,0.033445,0.0022168,-0.014128,-0.007368,-0.0065584,-0.0059288,0.016709,0.035815,0.030895,0.037621,0.056525,0.051768,0.061089,0.10914,0.12599,0.097037,0.080121,0.078495,0.080025,0.094421,0.11097,0.12462,0.12852,0.10379,0.076889,0.076819,0.080688,0.079124,0.080101,0.075649,0.081985,0.11226,0.13662,0.14623,0.1611,0.17247,0.16334,0.13466,0.098967,0.076413,0.063046,0.043503,0.036116,0.051094,0.072438,0.11001,0.15793,0.16638,0.13968,0.13788,0.16196,0.16418,0.147,0.14988,0.17036,0.17193,0.14628,0.11757,0.10259,0.10059,0.1,0.085045,0.069506,0.0852,0.10332,0.079867,0.054349,0.057485,0.042961,0.0050051,-0.010129,0.0079232,0.045535,0.076563,0.072644,0.053689,0.054793,0.062353,0.053572,0.038113,0.031883,0.038434,0.053906,0.063135,0.053522,0.051722,0.097084,0.15859,0.15657,0.084096,0.024811,0.029462,0.055242,0.054083,0.03824,0.025893,0.0071484,-0.0085096,0.0093142,0.04458,0.041725,0.0048066,-0.0082972,-0.006121,-0.024842,-0.025013,0.0084518,0.021891,0.008316,-0.0063426,-0.007187,0.029464,0.05947,0.013739,-0.041759,-0.017597,0.039102,0.059996,0.057372,0.065142,0.087609,0.10113,0.091079,0.073291,0.059328,0.04406,0.032841,0.034644,0.038727,0.031501,0.016047,-0.0082695,-0.042603,-0.053671,-0.025517,-0.0034731,-0.0074652,-0.0092209,-0.0087029,-0.0089595,0.0044114,0.018162,0.032967,0.063338,0.086132,0.099517,0.10962,0.089496,0.077502,0.11168,0.11673,0.080968,0.08584,0.10503,0.081732,0.058797,0.056549,0.037699,0.0046222,-0.012623,-0.0088666,0.0039165,0.023833,0.0554,0.079133,0.073154,0.05773,0.056222,0.056939,0.057024,0.070183
3,0.07267,0.076435,0.076485,0.090557,0.086567,0.046026,0.012847,0.014216,0.026656,0.029536,0.022789,0.010814,0.0061701,0.014972,0.011052,-0.02126,-0.050752,-0.056236,-0.055374,-0.056903,-0.056178,-0.063763,-0.081826,-0.089502,-0.087535,-0.092857,-0.08957,-0.080798,-0.10989,-0.10614,-0.098457,-0.11493,-0.12281,-0.13014,-0.15016,-0.15597,-0.14148,-0.14602,-0.17322,-0.18772,-0.19231,-0.20641,-0.21175,-0.1966,-0.18954,-0.20191,-0.20431,-0.18879,-0.18385,-0.20025,-0.22363,-0.238,-0.23837,-0.23956,-0.24204,-0.23454,-0.24032,-0.25694,-0.24644,-0.24014,-0.26604,-0.26675,-0.23759,-0.22602,-0.21187,-0.18827,-0.19493,-0.22141,-0.24058,-0.2527,-0.25993,-0.27435,-0.28975,-0.2812,-0.27298,-0.28656,-0.28182,-0.25346,-0.24909,-0.26724,-0.27232,-0.27011,-0.28024,-0.28939,-0.27895,-0.26638,-0.27422,-0.27852,-0.25619,-0.23845,-0.24,-0.23231,-0.22247,-0.23373,-0.24338,-0.23875,-0.24741,-0.27322,-0.29063,-0.29142,-0.28285,-0.27097,-0.26894,-0.2829,-0.28821,-0.26596,-0.24131,-0.24075,-0.25292,-0.25852,-0.25475,-0.2439,-0.2298,-0.22203,-0.22266,-0.21879,-0.20208,-0.17925,-0.16127,-0.15638,-0.16738,-0.1841,-0.18883,-0.17751,-0.16267,-0.15529,-0.15546,-0.15716,-0.15547,-0.15475,-0.16316,-0.17466,-0.17502,-0.16507,-0.15316,-0.13178,-0.095779,-0.069137,-0.070131,-0.077814,-0.069629,-0.057188,-0.061327,-0.076082,-0.076635,-0.056347,-0.035483,-0.025465,-0.010035,0.01721,0.028749,0.015577,0.01173,0.024771,0.027458,0.02933,0.05332,0.077028,0.072866,0.049058,0.029404,0.028659,0.040791,0.052386,0.063586,0.074868,0.084177,0.098149,0.10985,0.10339,0.090483,0.091593,0.10315,0.11186,0.11111,0.10703,0.11351,0.12552,0.12754,0.12802,0.14077,0.14966,0.13786,0.12659,0.13548,0.14508,0.14377,0.14352,0.14257,0.14266,0.14778,0.13663,0.11261,0.10686,0.11073,0.10978,0.11847,0.12907,0.12717,0.13179,0.15038,0.16013,0.15784,0.1638,0.17601,0.17243,0.15058,0.12865,0.12174,0.13201,0.14324,0.13633,0.12212,0.12536,0.14027,0.14099,0.12796,0.12403,0.12675,0.11241,0.09302,0.098785,0.11031,0.099341,0.095786,0.1241,0.14678,0.13453,0.11142,0.1056,0.11474,0.12613,0.13742,0.14621,0.14407,0.13294,0.12221,0.111,0.097365,0.094604,0.10945,0.11639,0.10358,0.1092,0.1386,0.13438,0.09478,0.091255,0.12688,0.12778,0.089746,0.074232,0.077114,0.058228,0.031783,0.010808,-0.015493,-0.020361,0.01002,0.029979,0.01916,0.010388,0.020941,0.027369,0.010358,0.0013334,0.02321,0.026882,-0.0012482,0.0011217,0.027251,0.020407,0.0045906,0.010538,0.0045985,-0.017932,-0.022758,-0.018628,-0.033695,-0.056846,-0.069526,-0.075801,-0.072418,-0.05849,-0.06236,-0.090874,-0.10734,-0.10268,-0.10685,-0.12107,-0.11879,-0.10559,-0.10417,-0.10746,-0.10619,-0.11491,-0.13302,-0.13934,-0.13675,-0.14953,-0.1744,-0.17981,-0.15777,-0.13877,-0.1466,-0.17122,-0.19051,-0.19288,-0.18199,-0.17217,-0.17119,-0.17703,-0.19114,-0.20465,-0.20427,-0.20739,-0.22968,-0.25039,-0.25589,-0.24665,-0.22684,-0.22386,-0.23801,-0.233,-0.2225,-0.23365,-0.24625,-0.25813,-0.27275,-0.26124,-0.23691,-0.23612,-0.24212,-0.2387,-0.23852,-0.23926,-0.23994,-0.25101,-0.26138,-0.25355,-0.23987,-0.2477,-0.2782,-0.30308,-0.30261,-0.28613,-0.27357,-0.27599,-0.29313,-0.31636,-0.32932,-0.31884,-0.29501,-0.28351,-0.29171,-0.30373,-0.30725,-0.30555,-0.30579,-0.30248,-0.28419,-0.25999,-0.2563,-0.27836,-0.30194,-0.3093,-0.30393,-0.29238,-0.2844,-0.29228,-0.30501,-0.30019,-0.28684,-0.28729,-0.2922,-0.28825,-0.29853,-0.32956,-0.33677,-0.31157,-0.29959,-0.30877,-0.31987,-0.32804,-0.31729,-0.29319,-0.28212,-0.26645,-0.24183,-0.24413,-0.25826,-0.25633,-0.26192,-0.27451,-0.26202,-0.23376,-0.22187,-0.23441,-0.25892,-0.27555,-0.27443,-0.26383,-0.25269,-0.24165,-0.2297,-0.22074,-0.22166,-0.22489,-0.22189,-0.2342,-0.25962,-0.24511,-0.19615,-0.17976,-0.19364,-0.19169,-0.17809,-0.17133,-0.17177,-0.18132,-0.19187,-0.1904,-0.18637,-0.19184,-0.19139,-0.17104,-0.15126,-0.1541,-0.16849,-0.17194,-0.15878,-0.1425,-0.14162,-0.15477,-0.15379,-0.1303,-0.12177,-0.13107,-0.1107,-0.07553,-0.065673,-0.043295,0.0052992,0.033497,0.052893,0.089445,0.11708,0.13347,0.15738,0.18105,0.20174,0.22452,0.24563,0.27191,0.30696,0.32818,0.3207,0.30984,0.32496,0.3558,0.37574,0.37971,0.37015,0.34519,0.33157,0.35911,0.39228,0.3875,0.36905,0.36033,0.35595,0.36587,0.37667,0.36479,0.3625,0.39158,0.41947,0.42645,0.41104,0.37605,0.35176,0.35933,0.37439,0.37434,0.37628,0.39595,0.4204,0.44271,0.4656,0.48453,0.50932,0.54438,0.56928,0.59278,0.62942,0.64455,0.62644,0.61842,0.63734,0.65974,0.66476,0.64848,0.62619,0.61384,0.60068,0.57603,0.56726,0.58828,0.59267,0.56618,0.56135,0.57663,0.57495,0.5861,0.62787,0.6571,0.65273,0.6249,0.59693,0.59334,0.59251,0.57776,0.58158,0.59282,0.5647,0.51657,0.49248,0.49135,0.49207,0.47432,0.43066,0.38504,0.3584,0.33768,0.30752,0.27419,0.25032,0.23199,0.20791,0.19302,0.19356,0.17359,0.14375,0.15648,0.17688,0.15452,0.13626,0.1441,0.13476,0.11872,0.12893,0.14324,0.13745,0.12597,0.12598,0.12167,0.087976,0.049146,0.046638,0.061569,0.061472,0.062721,0.079576,0.092879,0.089244,0.074604,0.062316,0.057225,0.038923,-0.0068458,-0.039487,-0.016581,0.013269,-0.015241,-0.061769,-0.072851,-0.076918,-0.092077,-0.1028,-0.11453,-0.12346,-0.12185,-0.13267,-0.16149,-0.18336,-0.21,-0.26852,-0.31773,-0.32021,-0.32647,-0.35223,-0.35329,-0.36071,-0.39835,-0.40386,-0.38869,-0.42277,-0.46907,-0.46963,-0.46659,-0.49335,-0.50471,-0.49018,-0.49946,-0.5271,-0.52641,-0.51447,-0.52681,-0.53995,-0.52477,-0.50118,-0.50107,-0.52298,-0.54195,-0.54166,-0.52803,-0.52246,-0.5345,-0.55051,-0.55485,-0.5427,-0.53147,-0.54399,-0.55683,-0.53956,-0.51777,-0.50842,-0.48882,-0.46834,-0.47026,-0.4752,-0.4715,-0.48368,-0.50547,-0.50109,-0.48829,-0.49999,-0.50238,-0.47688,-0.46507,-0.47714,-0.50005,-0.52457,-0.51336,-0.47634,-0.47385,-0.49462,-0.50401,-0.51583,-0.52138,-0.50785,-0.50195,-0.50674,-0.50593,-0.50507,-0.50517,-0.50515,-0.50757,-0.50291,-0.5033,-0.52594,-0.54009,-0.5253,-0.50897,-0.50473,-0.50527,-0.5071,-0.50341,-0.50394,-0.52472,-0.5417,-0.52579,-0.50455,-0.50926,-0.50799,-0.48167,-0.47312,-0.48768,-0.49114,-0.48616,-0.46086,-0.40685,-0.39212,-0.43471,-0.45253,-0.42636,-0.40651,-0.40424,-0.40633,-0.40596,-0.40453,-0.40534,-0.39119,-0.37022,-0.38036,-0.39025,-0.35757,-0.33518,-0.35408,-0.37011,-0.37331,-0.37292,-0.36107,-0.35495,-0.35613,-0.34431,-0.34012,-0.35509,-0.36027,-0.35032,-0.33957,-0.33596,-0.34241,-0.33972,-0.32417,-0.32685,-0.33912,-0.32939,-0.32182,-0.33868,-0.34628,-0.32972,-0.32244,-0.33361,-0.34224,-0.35555,-0.37994,-0.39302,-0.40562,-0.43898,-0.46552,-0.4724,-0.46768,-0.43598,-0.40577,-0.42907,-0.48463,-0.53965,-0.59675,-0.64535,-0.68975,-0.74725,-0.78907,-0.78829,-0.76601,-0.74475,-0.72114,-0.67335,-0.59476,-0.51993,-0.45772,-0.374,-0.286,-0.22903,-0.17381,-0.10259,-0.04376,-0.0002005,0.046816,0.11714,0.21905,0.31512,0.38064,0.45184,0.53111,0.56978,0.58475,0.65056,0.77872,0.92791,1.0897,1.2587,1.4044,1.5377,1.6984,1.8808,2.0574,2.2222,2.391,2.5972,2.8507,3.0993,3.2911,3.4524,3.6344,3.8271,4.0049,4.1684,4.3025,4.41,4.5318,4.6504,4.7103,4.7375,4.7978,4.8709,4.8902,4.8445,4.7501,4.5987,4.3865,4.1242,3.8124,3.4449,3.0147,2.5508,2.1281,1.7966,1.5703,1.4636,1.4177,1.3014,1.0833,0.85614,0.68614,0.57636,0.51943,0.50515,0.48305,0.34322,0.027243,-0.38854,-0.83803,-1.349,-1.9191,-2.5068,-3.099,-3.6619,-4.1539,-4.559,-4.8525,-5.0507,-5.2008,-5.2738,-5.2677,-5.275,-5.3038,-5.2819,-5.2099,-5.1327,-5.0757,-5.0423,-5.0042,-4.9474,-4.8873,-4.8092,-4.6969,-4.5708,-4.426,-4.2568,-4.1072,-3.9838,-3.8397,-3.6741,-3.5342,-3.4476,-3.3957,-3.3275,-3.2256,-3.1226,-3.0197,-2.8855,-2.7332,-2.5985,-2.4779,-2.3607,-2.2565,-2.1689,-2.0999,-2.0594,-2.0397,-2.0204,-1.992,-1.9474,-1.8888,-1.8392,-1.8082,-1.784,-1.7635,-1.7534,-1.7652,-1.796,-1.8065,-1.7773,-1.7431,-1.7115,-1.6532,-1.5789,-1.5143,-1.4494,-1.381,-1.3276,-1.2915,-1.2586,-1.2254,-1.2054,-1.2048,-1.2054,-1.1963,-1.1786,-1.1306,-1.0687,-1.0563,-1.0713,-1.0593,-1.0574,-1.0717,-1.052,-1.0376,-1.0674,-1.0827,-1.0601,-1.0395,-1.0345,-1.0414,-1.0538,-1.058,-1.0489,-1.0247,-0.99606,-0.98666,-0.98855,-0.98039,-0.96214,-0.92578,-0.88843,-0.8978,-0.92162,-0.90293,-0.88375,-0.88857,-0.87195,-0.84489,-0.83868,-0.83135,-0.81236,-0.79017,-0.76556,-0.74901,-0.73937,-0.72624,-0.72075,-0.7222,-0.71304,-0.69885,-0.68919,-0.67863,-0.66435,-0.64004,-0.60521,-0.57656,-0.55621,-0.5407,-0.53995,-0.53925,-0.51815,-0.4969,-0.48916,-0.47846,-0.46843,-0.4723,-0.47558,-0.46615,-0.45579,-0.44697,-0.42739,-0.40579,-0.4021,-0.40818,-0.40576,-0.4026,-0.41099,-0.42258,-0.4325,-0.44635,-0.45577,-0.44778,-0.42721,-0.40524,-0.38965,-0.39556,-0.42332,-0.43198,-0.40747,-0.40667,-0.43553,-0.42858,-0.40553,-0.42498,-0.44674,-0.43855,-0.44392,-0.47134,-0.48958,-0.49161,-0.4825,-0.47203,-0.47912,-0.50354,-0.52328,-0.53412,-0.54362,-0.53774,-0.52246,-0.52902,-0.53884,-0.52682,-0.52119,-0.52155,-0.50002,-0.47757,-0.47198,-0.46248,-0.44372,-0.41942,-0.38592,-0.35471,-0.33808,-0.33666,-0.34306,-0.33742,-0.31557,-0.2883,-0.25101,-0.22349,-0.22827,-0.21892,-0.18074,-0.17544,-0.18937,-0.15897,-0.10704,-0.067328,-0.022421,0.012923,0.0075948,-0.0078838,0.0064044,0.029689,0.039284,0.059612,0.10049,0.13512,0.15786,0.18042,0.19304,0.19118,0.19512,0.20705,0.21458,0.2309,0.25536,0.26119,0.26139,0.28351,0.31208,0.32872,0.33015,0.31099,0.29103,0.30129,0.33022,0.34413,0.34302,0.34451,0.3413,0.32864,0.32843,0.34841,0.37153,0.38213,0.37287,0.35989,0.36655,0.37774,0.37635,0.38177,0.39569,0.39568,0.38289,0.37618,0.38808,0.40181,0.38679,0.37282,0.40189,0.42973,0.42634,0.43835,0.46484,0.46336,0.44753,0.44237,0.44254,0.4443,0.44055,0.42807,0.42871,0.44916,0.46049,0.44922,0.44421,0.4692,0.49448,0.48883,0.48839,0.51726,0.52205,0.49555,0.50216,0.53501,0.54393,0.53457,0.52148,0.51025,0.51013,0.5074,0.50707,0.52909,0.5446,0.54213,0.55743,0.58304,0.59228,0.59413,0.58941,0.57734,0.57509,0.57385,0.56107,0.56074,0.58738,0.62191,0.64138,0.64057,0.64114,0.65997,0.6839,0.70627,0.7255,0.71922,0.6947,0.69428,0.71899,0.74065,0.75461,0.7581,0.74475,0.7284,0.72725,0.74109,0.74849,0.7348,0.72539,0.74372,0.76577,0.77505,0.79246,0.8184,0.8264,0.81559,0.8043,0.79371,0.77992,0.77563,0.79095,0.81542,0.8271,0.81114,0.78952,0.80292,0.84065,0.85993,0.85233,0.82759,0.80679,0.81589,0.8264,0.80443,0.78939,0.80838,0.82447,0.82436,0.82604,0.81928,0.79834,0.79254,0.80645,0.80209,0.77662,0.77705,0.80583,0.80974,0.79164,0.79938,0.80957,0.787,0.77083,0.7762,0.77508,0.77965,0.79288,0.78497,0.76684,0.75949,0.74833,0.74012,0.75998,0.77896,0.76493,0.75981,0.77767,0.75677,0.70864,0.70951,0.74068,0.74245,0.73641,0.7517,0.75935,0.75499,0.76791,0.7757,0.75249,0.73708,0.74298,0.73363,0.71905,0.72693,0.73077,0.71737,0.72824,0.77391,0.80358,0.79085,0.76595,0.75097,0.74239,0.74941,0.77166,0.77504,0.75936,0.76789,0.79468,0.80576,0.81732,0.84558,0.86972,0.87889,0.87477,0.86165,0.85981,0.87845,0.90077,0.9212,0.94486,0.9494,0.92336,0.90932,0.92222,0.9209,0.9083,0.9178,0.93521,0.94323,0.95334,0.9669,0.97661,0.97802,0.96351,0.93873,0.92522,0.92704,0.92454,0.92137,0.93954,0.96104,0.9611,0.95236,0.93949,0.92577,0.93107,0.94383,0.95275,0.9758,0.99286,0.98029,0.97062,0.97658,0.97632,0.97427,0.97505,0.96427,0.94341,0.92074,0.89734,0.88627,0.89442,0.89579,0.87959,0.87728,0.89101,0.88201,0.85273,0.84076,0.85011,0.8605,0.8611,0.84596,0.81948,0.80724,0.81965,0.8237,0.79962,0.7781,0.77542,0.76483,0.73907,0.72378,0.72521,0.72204,0.70293,0.68011,0.66584,0.65648,0.64529,0.6338,0.62264,0.61158,0.60132,0.5887,0.5776,0.57014,0.55282,0.52973,0.5171,0.50496,0.49304,0.5007,0.50981,0.4964,0.48691,0.49482,0.48214,0.45521,0.46828,0.4934,0.46898,0.43625,0.441,0.44167,0.4163,0.38283,0.34533,0.32162,0.32492,0.33025,0.32257,0.31126,0.30704,0.31066,0.29823,0.25543,0.21565,0.20874,0.22073,0.22669,0.21351,0.18673,0.17708,0.20438,0.24504,0.26165,0.2466,0.22162,0.20462,0.19457,0.18433,0.17156,0.16095,0.15768,0.16332,0.17591,0.16844,0.12274,0.093031,0.12156,0.14864,0.12972,0.11006,0.11031,0.095862,0.075799,0.081217,0.078814,0.050245,0.048501,0.075273,0.087055,0.10252,0.12611,0.1206,0.10443,0.094803,0.063613,0.036073,0.057894,0.091965,0.08513,0.061093,0.058052,0.058769,0.044485,0.030715,0.024992,0.026729,0.038421,0.04329,0.027741,0.011739,0.011565,0.010606,-0.0013576,-0.0078764,-0.0062381,-0.013985,-0.033262,-0.055884,-0.071417,-0.071731,-0.072789,-0.077906,-0.061864,-0.039568,-0.038425,-0.038395,-0.039603,-0.061999,-0.077838,-0.072771,-0.070966,-0.07614,-0.089831,-0.10644,-0.099049,-0.089627,-0.11046,-0.13217,-0.13957,-0.13539,-0.10121,-0.072664,-0.092063,-0.11677,-0.1231,-0.13547,-0.13761,-0.12215,-0.12001,-0.12301,-0.10465,-0.079337,-0.070293,-0.073055,-0.07384,-0.072036,-0.073033,-0.074761,-0.065507,-0.037038,-0.010118,-0.0076682,-0.0051838,0.017933,0.032174,0.026345,0.024378,0.032198,0.045031,0.057797,0.060115,0.060846,0.07174,0.082961,0.095434,0.1182,0.13356,0.12505,0.11079,0.11722,0.14797,0.18378,0.2003,0.19142,0.17718,0.18491,0.21397,0.22856,0.22034,0.23002,0.25657,0.25136,0.2231,0.21086,0.20824,0.21172,0.23394,0.25582,0.25973,0.2586,0.26505,0.2792,0.29182,0.28926,0.27371,0.26137,0.25947,0.25937,0.24866,0.23189,0.22712,0.2379,0.25686,0.28107,0.29428,0.28397,0.277,0.2897,0.29187,0.27198,0.25922,0.2669,0.27817,0.2781,0.27353,0.27814,0.27968,0.26135,0.23914,0.2279,0.22811,0.24991,0.27465,0.27004,0.25859,0.26024,0.25264,0.24161,0.24239,0.24653,0.26758,0.3039,0.31016,0.28776,0.28812,0.30913,0.30544,0.28112,0.26722,0.25612,0.24372,0.25008,0.26154,0.25967,0.27098,0.30133,0.31182,0.29821,0.29342,0.29462,0.28308,0.27611,0.27789,0.2614,0.23772,0.23964,0.26199,0.28044,0.27912,0.26412,0.26045,0.26172,0.24277,0.22204,0.22478,0.23109,0.22314,0.22367,0.25176,0.28627,0.29529,0.26981,0.23145,0.22369,0.25026,0.25714,0.2308,0.21325,0.20735,0.19506,0.18996,0.19502,0.19424,0.1857,0.16945,0.14621,0.13555,0.15163,0.17478,0.1814,0.17089,0.14693,0.12438,0.13615,0.1733,0.18641,0.16696,0.14504,0.1393,0.14632,0.14457,0.13657,0.15367,0.1764,0.16164,0.13363,0.12678,0.12738,0.12658,0.12709,0.11898,0.10371,0.09412,0.085277,0.069814,0.060452,0.061074,0.058219,0.059693
2,-0.11375,-0.11563,-0.11875,-0.11907,-0.11696,-0.11766,-0.12144,-0.12217,-0.11921,-0.11794,-0.11829,-0.11616,-0.11366,-0.11387,-0.1131,-0.1101,-0.10899,-0.10947,-0.10915,-0.11018,-0.11311,-0.1141,-0.11376,-0.11581,-0.11889,-0.12127,-0.12441,-0.12671,-0.12496,-0.12199,-0.12188,-0.12279,-0.1225,-0.1222,-0.12253,-0.12465,-0.12827,-0.12779,-0.12293,-0.12261,-0.125,-0.11934,-0.11549,-0.13097,-0.13536,-0.13574,-0.14104,-0.141,-0.13741,-0.13542,-0.13502,-0.13554,-0.13583,-0.13448,-0.1349,-0.13993,-0.14443,-0.14438,-0.1444,-0.14759,-0.14975,-0.148,-0.14494,-0.14404,-0.1469,-0.15254,-0.15703,-0.15773,-0.15659,-0.15664,-0.15739,-0.15697,-0.15628,-0.15752,-0.16029,-0.16198,-0.16141,-0.15939,-0.15613,-0.15112,-0.14531,-0.14037,-0.13691,-0.13529,-0.13702,-0.14233,-0.14756,-0.14899,-0.14829,-0.15,-0.15428,-0.15686,-0.15641,-0.15693,-0.16142,-0.16716,-0.1698,-0.16962,-0.16982,-0.17057,-0.16936,-0.16652,-0.16509,-0.1655,-0.1656,-0.1657,-0.16804,-0.17122,-0.17067,-0.16562,-0.16094,-0.16033,-0.1618,-0.16161,-0.16047,-0.16131,-0.16236,-0.16008,-0.15707,-0.15817,-0.16118,-0.1617,-0.16118,-0.16137,-0.16074,-0.161,-0.16529,-0.17084,-0.1735,-0.17517,-0.17804,-0.17965,-0.17818,-0.17549,-0.17321,-0.17063,-0.16753,-0.16549,-0.16531,-0.16564,-0.16558,-0.1656,-0.16557,-0.16532,-0.16578,-0.16601,-0.16413,-0.16142,-0.1592,-0.15605,-0.15301,-0.15284,-0.15282,-0.15119,-0.15343,-0.15943,-0.16143,-0.16085,-0.16504,-0.17018,-0.17023,-0.17045,-0.17365,-0.1735,-0.16978,-0.16885,-0.17033,-0.1702,-0.16954,-0.16987,-0.16999,-0.16988,-0.16994,-0.16968,-0.16981,-0.17047,-0.16945,-0.1666,-0.1651,-0.16548,-0.1656,-0.1656,-0.16592,-0.16473,-0.16186,-0.16029,-0.16138,-0.16378,-0.16669,-0.16934,-0.17035,-0.16989,-0.16959,-0.17004,-0.17017,-0.16883,-0.16582,-0.16258,-0.16108,-0.16115,-0.16124,-0.16122,-0.16155,-0.16102,-0.15848,-0.15595,-0.15642,-0.15931,-0.16135,-0.16142,-0.16123,-0.16131,-0.16091,-0.16129,-0.16373,-0.1662,-0.16617,-0.16396,-0.16133,-0.16032,-0.16174,-0.16219,-0.15919,-0.15694,-0.15768,-0.15629,-0.15272,-0.15442,-0.16043,-0.16256,-0.16107,-0.16097,-0.16116,-0.1609,-0.16412,-0.17025,-0.17384,-0.1741,-0.17408,-0.17438,-0.1742,-0.17399,-0.17434,-0.17447,-0.17315,-0.17014,-0.16694,-0.16537,-0.16538,-0.16568,-0.16559,-0.16546,-0.16559,-0.16562,-0.16548,-0.16552,-0.16569,-0.16553,-0.16523,-0.16616,-0.16892,-0.1722,-0.17423,-0.1745,-0.17404,-0.17404,-0.17443,-0.17422,-0.17382,-0.17444,-0.17475,-0.17274,-0.17007,-0.16941,-0.16997,-0.16994,-0.16994,-0.17001,-0.16826,-0.1652,-0.16435,-0.16701,-0.16969,-0.16887,-0.16532,-0.16218,-0.16098,-0.16101,-0.16232,-0.16555,-0.16889,-0.1699,-0.16961,-0.17102,-0.17398,-0.17659,-0.17916,-0.18194,-0.18327,-0.1829,-0.18272,-0.18273,-0.18058,-0.17653,-0.17419,-0.17558,-0.17883,-0.18163,-0.18338,-0.18331,-0.18092,-0.17847,-0.17809,-0.17865,-0.17858,-0.17852,-0.17854,-0.17675,-0.17316,-0.17033,-0.16982,-0.16995,-0.16823,-0.16484,-0.16194,-0.16095,-0.16118,-0.16136,-0.16121,-0.16101,-0.16174,-0.16451,-0.16932,-0.17448,-0.17772,-0.17862,-0.17851,-0.17855,-0.17852,-0.17833,-0.17863,-0.17871,-0.17813,-0.17844,-0.17925,-0.17805,-0.17723,-0.18143,-0.18678,-0.18628,-0.18218,-0.17955,-0.17728,-0.17456,-0.17381,-0.1742,-0.17397,-0.17457,-0.17472,-0.17186,-0.16989,-0.17228,-0.17461,-0.1742,-0.17525,-0.17841,-0.17933,-0.17821,-0.17816,-0.17889,-0.17863,-0.17681,-0.17345,-0.1704,-0.16997,-0.1701,-0.16781,-0.16537,-0.16524,-0.16564,-0.16552,-0.16581,-0.16551,-0.16476,-0.16662,-0.16959,-0.16888,-0.16559,-0.16311,-0.16019,-0.15707,-0.15872,-0.16508,-0.16953,-0.16972,-0.16948,-0.17048,-0.17017,-0.16756,-0.16535,-0.16526,-0.1658,-0.16572,-0.16446,-0.16079,-0.15539,-0.15127,-0.14899,-0.14642,-0.14394,-0.14213,-0.13773,-0.12974,-0.1222,-0.11821,-0.11605,-0.11273,-0.1077,-0.10178,-0.096944,-0.094193,-0.091573,-0.086802,-0.080323,-0.075528,-0.073165,-0.070111,-0.065122,-0.059801,-0.054841,-0.048271,-0.039904,-0.032114,-0.024802,-0.017068,-0.0099434,-0.0058987,-0.0055358,-0.0060889,-0.0061139,-0.0058253,-0.005882,-0.0061407,-0.0058836,-0.0059851,-0.0055742,-0.0023491,0.0031371,0.0075294,0.0096786,0.013314,0.018835,0.022818,0.024308,0.0225,0.01749,0.012115,0.010515,0.011382,0.01092,0.011789,0.014531,0.016896,0.0198,0.02608,0.035247,0.042821,0.050144,0.061503,0.077679,0.097282,0.11765,0.1378,0.15535,0.16787,0.17623,0.18181,0.18443,0.18125,0.17426,0.17104,0.1734,0.17555,0.17267,0.16716,0.16248,0.15771,0.15154,0.14163,0.12709,0.11176,0.098408,0.085849,0.070716,0.053504,0.03564,0.016885,0.00015016,-0.013058,-0.024467,-0.03739,-0.051744,-0.062881,-0.069018,-0.071744,-0.074295,-0.0757,-0.070404,-0.058353,-0.044916,-0.034668,-0.02768,-0.023282,-0.020915,-0.018161,-0.017419,-0.022665,-0.030912,-0.038028,-0.046885,-0.059981,-0.071681,-0.07834,-0.083455,-0.088468,-0.091438,-0.092893,-0.095529,-0.10016,-0.10548,-0.11074,-0.11561,-0.12065,-0.12635,-0.13101,-0.13227,-0.13045,-0.13008,-0.1333,-0.13538,-0.13326,-0.13068,-0.13064,-0.13161,-0.13449,-0.14289,-0.15442,-0.16283,-0.16763,-0.17283,-0.17895,-0.1831,-0.18539,-0.18849,-0.19114,-0.19131,-0.1915,-0.19401,-0.19619,-0.19584,-0.19647,-0.19991,-0.20306,-0.20494,-0.20947,-0.21885,-0.22924,-0.23736,-0.24462,-0.25043,-0.25212,-0.25173,-0.25363,-0.25642,-0.25654,-0.25604,-0.25627,-0.25477,-0.25172,-0.25068,-0.25283,-0.25545,-0.25758,-0.26048,-0.26348,-0.26499,-0.26486,-0.26473,-0.26483,-0.26438,-0.26513,-0.26775,-0.27001,-0.26944,-0.26677,-0.26445,-0.26203,-0.25888,-0.25642,-0.25592,-0.25617,-0.25579,-0.25675,-0.25948,-0.26329,-0.2693,-0.27556,-0.27796,-0.27755,-0.27847,-0.27793,-0.27254,-0.26851,-0.26888,-0.26822,-0.2651,-0.26406,-0.26478,-0.26246,-0.25851,-0.25641,-0.25458,-0.25145,-0.25014,-0.25403,-0.25948,-0.26224,-0.26504,-0.27015,-0.27474,-0.277,-0.27962,-0.28209,-0.28046,-0.27658,-0.27402,-0.27224,-0.26941,-0.26622,-0.26455,-0.26444,-0.26516,-0.26501,-0.26286,-0.26002,-0.2573,-0.25543,-0.25582,-0.25717,-0.25591,-0.25253,-0.25206,-0.25257,-0.24753,-0.23875,-0.23257,-0.22902,-0.22379,-0.21838,-0.21729,-0.21973,-0.222,-0.222,-0.22116,-0.22151,-0.22343,-0.22659,-0.22941,-0.23059,-0.23037,-0.23008,-0.23032,-0.23034,-0.23021,-0.23026,-0.23039,-0.23026,-0.22847,-0.22411,-0.21881,-0.21509,-0.21307,-0.21078,-0.20786,-0.20542,-0.20247,-0.19648,-0.1869,-0.17626,-0.16833,-0.16359,-0.16156,-0.16031,-0.15613,-0.14925,-0.13981,-0.12957,-0.11812,-0.10385,-0.086399,-0.059461,-0.026076,0.012528,0.059896,0.11491,0.17841,0.24076,0.31133,0.40313,0.51376,0.63938,0.76707,0.90517,1.0506,1.1961,1.3542,1.5288,1.7324,1.9495,2.1691,2.3952,2.6182,2.8504,3.0851,3.326,3.5768,3.8241,4.0825,4.339,4.5991,4.8712,5.1436,5.4102,5.6318,5.8232,6.0259,6.2496,6.4763,6.6722,6.8564,7.0332,7.1769,7.2832,7.3454,7.369,7.3554,7.3076,7.2316,7.1183,6.968,6.7855,6.5478,6.2498,5.896,5.5147,5.1276,4.7155,4.2691,3.7541,3.1535,2.4555,1.6384,0.69396,-0.37563,-1.4621,-2.4098,-3.1059,-3.5261,-3.7354,-3.7883,-3.7505,-3.6771,-3.59,-3.4944,-3.3793,-3.2624,-3.1548,-3.0641,-2.9976,-2.9415,-2.8769,-2.7922,-2.6945,-2.5941,-2.4997,-2.4006,-2.298,-2.1823,-2.0513,-1.9164,-1.7872,-1.6816,-1.5958,-1.5285,-1.4752,-1.4251,-1.3778,-1.3242,-1.2683,-1.2179,-1.1774,-1.149,-1.1199,-1.0917,-1.0638,-1.037,-1.0167,-0.99849,-0.97914,-0.95134,-0.91874,-0.88953,-0.86128,-0.8328,-0.80359,-0.77985,-0.76376,-0.74773,-0.72803,-0.70458,-0.68195,-0.65929,-0.63474,-0.61326,-0.59158,-0.56465,-0.53593,-0.5142,-0.49817,-0.478,-0.45726,-0.43981,-0.42121,-0.40035,-0.38204,-0.37019,-0.36016,-0.34941,-0.33961,-0.32972,-0.31907,-0.30831,-0.29945,-0.28925,-0.27521,-0.26406,-0.2586,-0.25392,-0.2485,-0.24666,-0.24757,-0.24699,-0.24825,-0.25138,-0.25078,-0.24767,-0.24714,-0.24711,-0.24208,-0.23482,-0.23056,-0.22942,-0.23063,-0.23317,-0.23583,-0.23839,-0.24119,-0.2434,-0.2437,-0.2425,-0.23982,-0.23628,-0.23459,-0.23481,-0.23395,-0.2311,-0.22949,-0.23029,-0.22927,-0.22414,-0.21854,-0.21668,-0.2173,-0.21744,-0.21721,-0.2152,-0.20973,-0.20477,-0.20413,-0.2042,-0.20143,-0.19958,-0.20009,-0.19872,-0.19553,-0.19464,-0.19677,-0.19942,-0.20105,-0.20004,-0.19529,-0.18984,-0.18727,-0.18724,-0.18717,-0.18659,-0.18761,-0.19035,-0.19219,-0.19162,-0.19062,-0.19187,-0.19464,-0.19631,-0.19594,-0.19528,-0.19588,-0.19634,-0.19482,-0.19203,-0.19064,-0.19153,-0.19221,-0.19061,-0.18792,-0.18566,-0.18289,-0.17963,-0.17841,-0.17866,-0.17798,-0.17834,-0.18122,-0.18291,-0.18245,-0.1842,-0.18707,-0.18459,-0.17736,-0.17161,-0.16873,-0.16621,-0.16346,-0.16105,-0.15857,-0.15588,-0.15336,-0.15088,-0.14826,-0.14556,-0.14348,-0.14351,-0.14487,-0.14414,-0.13969,-0.13392,-0.12889,-0.12377,-0.11864,-0.11527,-0.11346,-0.11112,-0.10781,-0.1054,-0.10485,-0.10519,-0.10531,-0.10506,-0.1051,-0.10532,-0.10513,-0.10499,-0.10531,-0.10534,-0.10481,-0.10513,-0.10596,-0.10441,-0.10139,-0.10147,-0.10485,-0.10662,-0.10447,-0.10157,-0.10061,-0.10081,-0.10078,-0.10097,-0.10318,-0.10695,-0.10932,-0.1093,-0.10958,-0.11215,-0.11444,-0.1141,-0.11391,-0.11819,-0.12637,-0.13244,-0.13234,-0.12855,-0.12671,-0.12876,-0.13179,-0.13426,-0.13702,-0.13948,-0.14026,-0.13945,-0.13721,-0.13347,-0.13112,-0.13167,-0.13071,-0.12568,-0.12062,-0.11851,-0.11656,-0.11367,-0.11293,-0.11437,-0.11444,-0.11201,-0.1095,-0.10761,-0.10378,-0.098323,-0.095222,-0.096328,-0.097807,-0.095874,-0.093023,-0.091614,-0.088712,-0.082905,-0.078998,-0.079246,-0.078639,-0.075638,-0.073256,-0.070285,-0.064956,-0.061061,-0.061629,-0.061927,-0.057592,-0.05173,-0.048462,-0.048565,-0.050518,-0.053225,-0.054733,-0.052582,-0.049582,-0.049377,-0.04933,-0.045389,-0.039407,-0.034514,-0.028968,-0.023781,-0.022637,-0.023149,-0.021135,-0.017367,-0.014944,-0.014059,-0.014603,-0.017279,-0.019492,-0.019408,-0.017539,-0.014587,-0.011704,-0.010005,-0.010125,-0.010459,-0.010238,-0.010335,-0.010239,-0.010229,-0.010528,-0.010402,-0.008679,-0.0054514,-0.0028663,-0.00068582,0.001984,0.0049145,0.0071444,0.0072036,0.0070715,0.0098428,0.014514,0.015672,0.012305,0.011601,0.014617,0.016062,0.015666,0.017196,0.020775,0.023211,0.025624,0.028365,0.028888,0.028594,0.030517,0.035411,0.040594,0.045166,0.050866,0.056312,0.059921,0.062246,0.066116,0.072061,0.077302,0.081686,0.084261,0.084545,0.084722,0.086504,0.089871,0.092371,0.094436,0.097335,0.10142,0.10765,0.11323,0.11537,0.11493,0.11565,0.11997,0.12516,0.12942,0.13182,0.13227,0.13215,0.13175,0.1322,0.1322,0.13162,0.13223,0.13247,0.1316,0.13116,0.13476,0.14055,0.1434,0.14575,0.15064,0.15716,0.16195,0.16432,0.16716,0.16969,0.17178,0.17452,0.17885,0.18456,0.18942,0.19466,0.19991,0.20352,0.20561,0.20562,0.20511,0.20496,0.20678,0.20985,0.21027,0.2094,0.20921,0.2102,0.20999,0.20831,0.21062,0.21592,0.21997,0.22228,0.22602,0.23226,0.23723,0.24209,0.24746,0.2512,0.25306,0.25274,0.25303,0.25571,0.26096,0.26605,0.26814,0.27118,0.27408,0.27334,0.27044,0.26887,0.27068,0.27306,0.27599,0.27868,0.2787,0.27894,0.2811,0.28423,0.28375,0.27979,0.27897,0.28121,0.28388,0.28635,0.29085,0.29637,0.29857,0.30156,0.30699,0.31152,0.31345,0.31461,0.31881,0.32164,0.32118,0.3218,0.32569,0.33175,0.33651,0.34203,0.34734,0.34839,0.34776,0.34749,0.34719,0.34432,0.34146,0.34396,0.34893,0.35337,0.35573,0.3579,0.36098,0.36116,0.36031,0.3602,0.36113,0.361,0.35919,0.36174,0.36707,0.37101,0.37347,0.37589,0.37821,0.37773,0.37853,0.38172,0.38415,0.38705,0.38951,0.39145,0.39403,0.39925,0.40416,0.40224,0.39799,0.3956,0.39389,0.39125,0.38762,0.38617,0.38372,0.37965,0.37808,0.37992,0.38252,0.38018,0.37492,0.37021,0.36501,0.36007,0.35636,0.35706,0.36025,0.36043,0.35603,0.34777,0.34095,0.33615,0.33129,0.32639,0.32064,0.31601,0.31094,0.30518,0.30073,0.29729,0.29552,0.29304,0.28919,0.28399,0.2776,0.27406,0.27363,0.27492,0.27491,0.27122,0.26509,0.25698,0.25008,0.24536,0.24084,0.23551,0.22952,0.22565,0.22081,0.21251,0.20571,0.20269,0.19979,0.19201,0.18263,0.17589,0.17024,0.1656,0.16067,0.1542,0.14642,0.13837,0.131,0.123,0.11618,0.11152,0.1069,0.10151,0.095671,0.092032,0.089802,0.086006,0.080388,0.074327,0.070728,0.068423,0.064752,0.059226,0.053132,0.04935,0.046884,0.044168,0.041813,0.039765,0.036292,0.028888,0.019692,0.012402,0.0082918,0.0068934,0.0048881,0.00046303,-0.0047867,-0.0083277,-0.010303,-0.01294,-0.015481,-0.017934,-0.020955,-0.023105,-0.024895,-0.029217,-0.03714,-0.044606,-0.048768,-0.051484,-0.053946,-0.056461,-0.059269,-0.061732,-0.062539,-0.062004,-0.063787,-0.069094,-0.074256,-0.075731,-0.074933,-0.076605,-0.081384,-0.086529,-0.091142,-0.096552,-0.10242,-0.10609,-0.10841,-0.11164,-0.11377,-0.11221,-0.10866,-0.10612,-0.10386,-0.10113,-0.1001,-0.10108,-0.10143,-0.10026,-0.10045,-0.10309,-0.10534,-0.10725,-0.11177,-0.11721,-0.11883,-0.1181,-0.12009,-0.12341,-0.12333,-0.12028,-0.11812,-0.11802,-0.11807,-0.11789,-0.11905,-0.12206,-0.12544,-0.12675,-0.12453,-0.12008,-0.11798,-0.12017,-0.12262,-0.12267,-0.12242,-0.12253,-0.12179,-0.12262,-0.12746,-0.13287,-0.13517,-0.13549,-0.13536,-0.13505,-0.13584,-0.1385,-0.14149,-0.14384,-0.14631,-0.14898,-0.15161,-0.15351,-0.15292,-0.15011,-0.14815,-0.14823,-0.14819,-0.14811,-0.15011,-0.15284,-0.15329,-0.15221,-0.15235,-0.15327,-0.15255,-0.15007,-0.14747,-0.14507,-0.14117,-0.13552,-0.13136,-0.13152,-0.13438,-0.13603,-0.13546,-0.13491,-0.13553,-0.13575,-0.13488,-0.13513,-0.13638,-0.13493,-0.13161,-0.13166,-0.13471,-0.13701,-0.13996,-0.14366,-0.14317,-0.14005,-0.14012,-0.13966,-0.13418,-0.13074,-0.13387,-0.13649,-0.13542,-0.13646,-0.14076,-0.14352,-0.14466,-0.14773,-0.15161,-0.15255,-0.15197,-0.15393,-0.15668,-0.15683,-0.1571,-0.15986,-0.16159,-0.16117,-0.16254,-0.16568,-0.16801,-0.17133,-0.17674,-0.18096,-0.18278,-0.18487,-0.18801,-0.19056,-0.19281,-0.19553,-0.19678,-0.19536,-0.19467,-0.19766,-0.20013,-0.198,-0.19569,-0.19783,-0.20168,-0.20393,-0.20623,-0.20886,-0.20933,-0.20833,-0.20842,-0.20926,-0.20872,-0.20622,-0.20379,-0.20369,-0.20607,-0.20861,-0.2093,-0.20836,-0.20602,-0.2018,-0.19645,-0.19246,-0.19144,-0.19171,-0.19064,-0.1878,-0.18477,-0.18261,-0.18025,-0.17716,-0.17459,-0.17379,-0.17421,-0.17432,-0.17413,-0.17424,-0.17341,-0.17002,-0.16613,-0.16597,-0.16889,-0.17044,-0.16994,-0.16982,-0.16971,-0.16732,-0.16375,-0.16151,-0.15972,-0.15638,-0.15307,-0.15319,-0.15623,-0.1581,-0.15676,-0.15398,-0.1521,-0.15217,-0.15422,-0.15694,-0.15794,-0.15613,-0.15335,-0.1521,-0.15257,-0.15307,-0.15228,-0.14982,-0.14641,-0.14413,-0.14385,-0.14397,-0.14383,-0.14431,-0.14428,-0.14203,-0.1395,-0.13922,-0.13992,-0.1398,-0.13953,-0.13968,-0.13962,-0.14,-0.14264,-0.14659,-0.14832,-0.14641,-0.14313,-0.14061,-0.13829,-0.13563,-0.13309,-0.1305,-0.12789,-0.12557,-0.12295,-0.11983,-0.11799,-0.11814,-0.11756,-0.1146,-0.11221,-0.11406,-0.11926,-0.12399,-0.12647,-0.12628,-0.1224,-0.11656,-0.11323,-0.11349,-0.11394
4,-0.24738,-0.24697,-0.24723,-0.24744,-0.24683,-0.24726,-0.24773,-0.24626,-0.24739,-0.25196,-0.25318,-0.25342,-0.25778,-0.25865,-0.25231,-0.24751,-0.24733,-0.24707,-0.24671,-0.24939,-0.25424,-0.25838,-0.26022,-0.25828,-0.25394,-0.2525,-0.25342,-0.25331,-0.25312,-0.25359,-0.25833,-0.26236,-0.25627,-0.2583,-0.26565,-0.25101,-0.25226,-0.2705,-0.21432,-0.20534,-0.20942,-0.19277,-0.19982,-0.20238,-0.19636,-0.19992,-0.20469,-0.20569,-0.20504,-0.2008,-0.19804,-0.19972,-0.19992,-0.19804,-0.20026,-0.20477,-0.20507,-0.20606,-0.2107,-0.20992,-0.2031,-0.19941,-0.19953,-0.19892,-0.19906,-0.20266,-0.20636,-0.20559,-0.20136,-0.19838,-0.19927,-0.2002,-0.19809,-0.19938,-0.20461,-0.20366,-0.1992,-0.19924,-0.19772,-0.19298,-0.19251,-0.19403,-0.19314,-0.19296,-0.19376,-0.19313,-0.19297,-0.1941,-0.19256,-0.18817,-0.18643,-0.18765,-0.18755,-0.18665,-0.18817,-0.1926,-0.19515,-0.19136,-0.18744,-0.18797,-0.18564,-0.18143,-0.18425,-0.1887,-0.18743,-0.18638,-0.18825,-0.18731,-0.18295,-0.18046,-0.18145,-0.18188,-0.18043,-0.18171,-0.18607,-0.18804,-0.1872,-0.18711,-0.18755,-0.18725,-0.18721,-0.18748,-0.18724,-0.18723,-0.18753,-0.18716,-0.18717,-0.18796,-0.18634,-0.18193,-0.18016,-0.18207,-0.18162,-0.17985,-0.18348,-0.18736,-0.18395,-0.18023,-0.18134,-0.18182,-0.18095,-0.18138,-0.18152,-0.18114,-0.18138,-0.18139,-0.18137,-0.18124,-0.17767,-0.17127,-0.16964,-0.17402,-0.17637,-0.17507,-0.17506,-0.17575,-0.17516,-0.17516,-0.1759,-0.17459,-0.17021,-0.16755,-0.17102,-0.17514,-0.17524,-0.17579,-0.17567,-0.17106,-0.16985,-0.17509,-0.17682,-0.17406,-0.17533,-0.17993,-0.18174,-0.18136,-0.18156,-0.18001,-0.17492,-0.17021,-0.16904,-0.1694,-0.16936,-0.1694,-0.16933,-0.16925,-0.1696,-0.16921,-0.16907,-0.1702,-0.16846,-0.16404,-0.16277,-0.16345,-0.16323,-0.16595,-0.17071,-0.16999,-0.16495,-0.16326,-0.16347,-0.1625,-0.16509,-0.16928,-0.16949,-0.16973,-0.1694,-0.16492,-0.16314,-0.16332,-0.15913,-0.1566,-0.15744,-0.15723,-0.15807,-0.15694,-0.15228,-0.15149,-0.15089,-0.14614,-0.14693,-0.15229,-0.15211,-0.15031,-0.15194,-0.15198,-0.14819,-0.14466,-0.14506,-0.14646,-0.14448,-0.14487,-0.15023,-0.15038,-0.14567,-0.14525,-0.14437,-0.13959,-0.13844,-0.14007,-0.13943,-0.13905,-0.13976,-0.1394,-0.13915,-0.13987,-0.13924,-0.13544,-0.13033,-0.12721,-0.1271,-0.12791,-0.12725,-0.12705,-0.12843,-0.12659,-0.12214,-0.12109,-0.12137,-0.12112,-0.12447,-0.12819,-0.1277,-0.12698,-0.12774,-0.12761,-0.12489,-0.11883,-0.11541,-0.11905,-0.12232,-0.1215,-0.12122,-0.12152,-0.12147,-0.12194,-0.11977,-0.11527,-0.11454,-0.11652,-0.11521,-0.11426,-0.11881,-0.12134,-0.11704,-0.11423,-0.11582,-0.11588,-0.11487,-0.11576,-0.1158,-0.11475,-0.11602,-0.11611,-0.11174,-0.10928,-0.1097,-0.10639,-0.10264,-0.10334,-0.10397,-0.1034,-0.10355,-0.10102,-0.093955,-0.085696,-0.08067,-0.078688,-0.07337,-0.064623,-0.059588,-0.055096,-0.043686,-0.029777,-0.018456,-0.0066431,0.0063792,0.017998,0.02983,0.043167,0.054013,0.061842,0.070139,0.077893,0.085792,0.095446,0.10104,0.10461,0.11533,0.12737,0.13482,0.14542,0.15828,0.16549,0.17163,0.18314,0.19539,0.20376,0.21135,0.21987,0.22769,0.2359,0.24418,0.25175,0.26055,0.26838,0.27559,0.2858,0.29216,0.29493,0.30416,0.30969,0.3046,0.30507,0.31034,0.30975,0.31157,0.31647,0.31607,0.31503,0.31562,0.31547,0.31822,0.32304,0.3271,0.33153,0.33387,0.33374,0.33402,0.33215,0.328,0.32427,0.31792,0.30992,0.3051,0.30153,0.29773,0.29402,0.28724,0.27925,0.27178,0.25888,0.24179,0.22892,0.22048,0.21245,0.20431,0.19601,0.18843,0.18441,0.18194,0.17607,0.17187,0.17345,0.16927,0.15622,0.1464,0.13876,0.12597,0.1126,0.10209,0.094613,0.090604,0.084919,0.076537,0.071378,0.068601,0.064248,0.05958,0.057127,0.058374,0.062502,0.065046,0.064056,0.063546,0.065142,0.063601,0.055784,0.044588,0.031872,0.019362,0.010175,0.0024721,-0.0057522,-0.013187,-0.022658,-0.035131,-0.045311,-0.050927,-0.050468,-0.043005,-0.035602,-0.032026,-0.028044,-0.02487,-0.025455,-0.028562,-0.034989,-0.043305,-0.051108,-0.060225,-0.067592,-0.071361,-0.076625,-0.079519,-0.078348,-0.083923,-0.091987,-0.092034,-0.092675,-0.098339,-0.10241,-0.10609,-0.11018,-0.11397,-0.11936,-0.1214,-0.12072,-0.12679,-0.13536,-0.13891,-0.14226,-0.14671,-0.15054,-0.15771,-0.16596,-0.16922,-0.1714,-0.17948,-0.19242,-0.20258,-0.20665,-0.21115,-0.21664,-0.21648,-0.2174,-0.22562,-0.23174,-0.23565,-0.24405,-0.24899,-0.24699,-0.24663,-0.24761,-0.2473,-0.25095,-0.25735,-0.25911,-0.25857,-0.26229,-0.26525,-0.26071,-0.25661,-0.261,-0.26529,-0.262,-0.25852,-0.25907,-0.25922,-0.25932,-0.25941,-0.25573,-0.25214,-0.25312,-0.2539,-0.25237,-0.2532,-0.25727,-0.26004,-0.2592,-0.25849,-0.26003,-0.25899,-0.25448,-0.25249,-0.2533,-0.25325,-0.25318,-0.25315,-0.25293,-0.25389,-0.25253,-0.24807,-0.24656,-0.24729,-0.24716,-0.24755,-0.24678,-0.24678,-0.24909,-0.24455,-0.23593,-0.23484,-0.23423,-0.22958,-0.22901,-0.22816,-0.22349,-0.22267,-0.22261,-0.21738,-0.21251,-0.20977,-0.20517,-0.20341,-0.20876,-0.21116,-0.20667,-0.20495,-0.20522,-0.20464,-0.20719,-0.20401,-0.19475,-0.19396,-0.19179,-0.17867,-0.17132,-0.16762,-0.15077,-0.12828,-0.11067,-0.094492,-0.080343,-0.070468,-0.058045,-0.03646,-0.0090176,0.019362,0.057525,0.11432,0.17541,0.22356,0.259,0.27989,0.28486,0.28609,0.2858,0.28562,0.30728,0.35652,0.41044,0.45198,0.47289,0.47566,0.48522,0.52145,0.57733,0.64571,0.73045,0.81353,0.86696,0.91011,0.99202,1.1222,1.2608,1.3596,1.4039,1.4128,1.3936,1.3456,1.2887,1.2171,1.0889,0.89984,0.67886,0.41409,0.067637,-0.35151,-0.80013,-1.2389,-1.6248,-1.9545,-2.2681,-2.5616,-2.8134,-3.0511,-3.3026,-3.5857,-3.9292,-4.322,-4.717,-5.0667,-5.3307,-5.5361,-5.7566,-5.9812,-6.133,-6.1891,-6.1792,-6.1365,-6.0845,-6.0269,-5.9582,-5.8756,-5.7817,-5.6923,-5.6086,-5.5071,-5.3905,-5.2951,-5.2382,-5.2072,-5.198,-5.2101,-5.2121,-5.1814,-5.1273,-5.0468,-4.9393,-4.8353,-4.7429,-4.6423,-4.5249,-4.3774,-4.1945,-4.0037,-3.8203,-3.638,-3.4648,-3.3023,-3.1327,-2.9592,-2.8007,-2.649,-2.4933,-2.3513,-2.2256,-2.101,-1.9816,-1.8665,-1.7483,-1.6437,-1.5552,-1.4616,-1.3678,-1.2879,-1.2142,-1.1401,-1.0691,-1.0032,-0.93981,-0.87442,-0.80564,-0.73449,-0.66053,-0.5871,-0.51817,-0.44805,-0.37465,-0.30796,-0.2519,-0.20348,-0.16349,-0.12955,-0.097479,-0.066215,-0.030635,0.01038,0.046707,0.073911,0.097745,0.11977,0.13632,0.14748,0.15888,0.17163,0.17804,0.18016,0.1901,0.20229,0.20637,0.21128,0.22059,0.22509,0.22705,0.23275,0.24058,0.24915,0.257,0.26466,0.27433,0.2803,0.27977,0.28112,0.28751,0.29561,0.30443,0.31106,0.31478,0.32132,0.33023,0.33372,0.33247,0.33535,0.34463,0.35642,0.3679,0.37544,0.38153,0.3937,0.40568,0.40952,0.41457,0.42397,0.42852,0.43049,0.4361,0.44047,0.44233,0.44861,0.4573,0.46018,0.45931,0.45943,0.45712,0.45253,0.45248,0.45486,0.45198,0.44762,0.44786,0.44571,0.43697,0.43053,0.42843,0.42416,0.42123,0.4253,0.42947,0.42885,0.43042,0.43546,0.43628,0.4341,0.43569,0.43945,0.44269,0.44792,0.45578,0.46226,0.46579,0.46948,0.47252,0.47102,0.46977,0.47618,0.48433,0.4843,0.48125,0.48446,0.48887,0.48881,0.48966,0.48998,0.48497,0.48368,0.48867,0.48995,0.48882,0.48938,0.48887,0.48952,0.4897,0.48482,0.48347,0.48936,0.49086,0.48723,0.48965,0.49491,0.49276,0.48952,0.49306,0.49604,0.49535,0.4951,0.4945,0.49583,0.50027,0.49978,0.4944,0.49409,0.49687,0.49425,0.4938,0.50043,0.4997,0.49483,0.50185,0.50729,0.50203,0.50094,0.49924,0.49018,0.49004,0.49764,0.49597,0.48966,0.48957,0.48964,0.48481,0.48244,0.4836,0.48309,0.48323,0.48346,0.48249,0.48425,0.48294,0.47756,0.47818,0.47636,0.46681,0.46637,0.47196,0.4713,0.47332,0.47788,0.47742,0.47754,0.47614,0.47158,0.47363,0.47791,0.4774,0.47955,0.48492,0.48899,0.49319,0.49533,0.49541,0.49853,0.50203,0.50158,0.5032,0.51166,0.51966,0.52334,0.5263,0.52518,0.52299,0.53033,0.53764,0.53652,0.54092,0.55042,0.55392,0.55932,0.56878,0.57259,0.57478,0.58047,0.58446,0.587,0.59306,0.60149,0.60939,0.61762,0.62605,0.63146,0.63272,0.63297,0.63823,0.64955,0.65707,0.65904,0.66784,0.68119,0.68606,0.68737,0.69349,0.70105,0.70878,0.71779,0.72556,0.7328,0.74216,0.75042,0.75485,0.75989,0.76779,0.77591,0.78453,0.79265,0.79924,0.80966,0.82225,0.83043,0.83963,0.85248,0.86171,0.86869,0.87745,0.88538,0.89314,0.90195,0.90958,0.91747,0.92645,0.9312,0.93234,0.9389,0.95063,0.96005,0.96923,0.98129,0.98904,0.99311,1.0038,1.0175,1.0226,1.0249,1.0356,1.048,1.0555,1.0638,1.0712,1.0746,1.0811,1.09,1.0978,1.1095,1.12,1.1234,1.1311,1.1474,1.1594,1.1629,1.1679,1.1775,1.1856,1.1921,1.2019,1.2136,1.2233,1.2325,1.2434,1.2545,1.2626,1.2696,1.2767,1.2803,1.2861,1.3003,1.3106,1.313,1.3225,1.3354,1.3387,1.3428,1.3538,1.3577,1.3569,1.3671,1.38,1.3836,1.3898,1.3989,1.3988,1.4007,1.4107,1.4155,1.4181,1.4236,1.4261,1.432,1.4418,1.4455,1.4482,1.4542,1.4572,1.4606,1.4662,1.4693,1.4727,1.4782,1.4818,1.4832,1.4834,1.4827,1.4829,1.4832,1.4826,1.4851,1.49,1.49,1.4852,1.4825,1.483,1.4835,1.4818,1.478,1.4757,1.4774,1.4779,1.4737,1.468,1.4605,1.4506,1.4443,1.4421,1.4376,1.431,1.4239,1.4147,1.4061,1.3995,1.3911,1.3798,1.3686,1.3561,1.3421,1.3326,1.325,1.3105,1.2948,1.283,1.2681,1.2516,1.2358,1.2178,1.2042,1.1928,1.1756,1.1616,1.1505,1.1305,1.1109,1.0962,1.0757,1.056,1.0415,1.0244,1.0087,0.99307,0.97133,0.95367,0.93823,0.9136,0.88925,0.87152,0.85431,0.84043,0.8292,0.81291,0.79508,0.78032,0.76412,0.74638,0.73199,0.71997,0.70755,0.69573,0.68376,0.6708,0.65947,0.64765,0.6315,0.61581,0.60461,0.59313,0.57938,0.56816,0.56,0.55004,0.53806,0.52574,0.51249,0.50163,0.49364,0.48257,0.47123,0.46636,0.46192,0.45268,0.44405,0.43551,0.42148,0.40795,0.4026,0.39836,0.38974,0.38383,0.38044,0.3722,0.36245,0.3558,0.34773,0.33797,0.33213,0.32846,0.3234,0.32122,0.32182,0.31891,0.31281,0.30463,0.29507,0.28975,0.2861,0.28053,0.28002,0.27991,0.27157,0.26482,0.26166,0.25344,0.24609,0.24367,0.23965,0.23471,0.23152,0.23094,0.2333,0.23063,0.2217,0.21842,0.21984,0.21562,0.20928,0.20777,0.20796,0.20739,0.20809,0.20821,0.20482,0.20009,0.19631,0.19476,0.19676,0.19637,0.18832,0.1819,0.18392,0.18564,0.18023,0.17201,0.16991,0.17398,0.17167,0.16543,0.16918,0.17164,0.16269,0.15878,0.15967,0.15129,0.14461,0.14927,0.15372,0.15356,0.15422,0.15443,0.15122,0.14672,0.14279,0.13869,0.13468,0.13075,0.12614,0.12329,0.12392,0.12475,0.12269,0.11846,0.11384,0.11105,0.11211,0.11322,0.10959,0.10616,0.10637,0.1041,0.099997,0.099781,0.098904,0.093475,0.08879,0.087529,0.088423,0.092357,0.096269,0.092711,0.084068,0.07875,0.075059,0.070699,0.069979,0.069512,0.065009,0.062802,0.064807,0.064594,0.060826,0.056523,0.05263,0.048641,0.044181,0.040418,0.039464,0.040744,0.040326,0.036257,0.032927,0.034361,0.035496,0.031288,0.028299,0.032108,0.035601,0.033958,0.033352,0.035619,0.033334,0.024908,0.01802,0.016121,0.016156,0.016328,0.016133,0.016103,0.016606,0.015874,0.015921,0.017509,0.01452,0.010311,0.013297,0.016917,0.016276,0.019015,0.023693,0.022479,0.020547,0.024606,0.028296,0.02777,0.029744,0.034433,0.03809,0.043082,0.046303,0.045613,0.048501,0.052435,0.051957,0.054119,0.058849,0.062347,0.069666,0.077362,0.081026,0.085664,0.088197,0.08768,0.091435,0.094245,0.093675,0.099741,0.1085,0.1118,0.11518,0.11905,0.11832,0.11696,0.11942,0.12393,0.12801,0.13171,0.13614,0.13756,0.13298,0.13016,0.13401,0.1369,0.13599,0.13576,0.1358,0.1363,0.14025,0.14364,0.14123,0.13672,0.13547,0.13606,0.13585,0.13779,0.14362,0.14774,0.14775,0.14826,0.1484,0.14449,0.14124,0.1419,0.14226,0.14173,0.14205,0.142,0.14188,0.14211,0.14182,0.14213,0.14212,0.13849,0.13304,0.13005,0.12976,0.12998,0.13011,0.13023,0.12836,0.12325,0.1186,0.11795,0.11774,0.11351,0.10999,0.11326,0.11782,0.11591,0.11063,0.10679,0.10281,0.099169,0.099713,0.10138,0.098384,0.094366,0.094083,0.09313,0.088565,0.084003,0.080283,0.076313,0.075341,0.075931,0.070102,0.063664,0.066151,0.063642,0.050092,0.044876,0.04599,0.037771,0.031426,0.034871,0.035444,0.031069,0.027611,0.023612,0.018903,0.015464,0.011473,0.0064308,0.0039177,0.0042156,0.0041773,0.004435,0.0045574,0.0012794,-0.0033986,-0.0072333,-0.0114,-0.015315,-0.019371,-0.021475,-0.016998,-0.013594,-0.020644,-0.029416,-0.031628,-0.034679,-0.041306,-0.043559,-0.042773,-0.046335,-0.049728,-0.04929,-0.051924,-0.055963,-0.055731,-0.057145,-0.062792,-0.066998,-0.06819,-0.067247,-0.067022,-0.070808,-0.074069,-0.073582,-0.075567,-0.081698,-0.085411,-0.08521,-0.086558,-0.091089,-0.092947,-0.090314,-0.091249,-0.096467,-0.097059,-0.097444,-0.10547,-0.11153,-0.10935,-0.10513,-0.10213,-0.10384,-0.10882,-0.1088,-0.11013,-0.11886,-0.12306,-0.12121,-0.12132,-0.12125,-0.12179,-0.12232,-0.11749,-0.116,-0.1208,-0.12138,-0.12247,-0.12717,-0.12495,-0.12054,-0.1213,-0.12133,-0.12248,-0.12712,-0.12806,-0.12794,-0.13315,-0.13575,-0.13033,-0.12745,-0.1317,-0.13384,-0.1335,-0.13736,-0.14071,-0.13926,-0.1388,-0.14028,-0.13907,-0.13505,-0.13048,-0.12702,-0.12671,-0.13016,-0.13404,-0.13398,-0.13239,-0.13409,-0.13425,-0.12921,-0.12797,-0.13276,-0.13416,-0.13368,-0.13855,-0.14423,-0.14546,-0.14538,-0.14592,-0.14417,-0.13961,-0.1378,-0.14183,-0.14543,-0.14516,-0.1469,-0.15161,-0.15267,-0.14887,-0.1452,-0.14467,-0.14741,-0.15206,-0.15621,-0.15965,-0.16432,-0.16869,-0.1697,-0.16935,-0.16945,-0.16885,-0.17007,-0.17439,-0.17852,-0.18279,-0.18693,-0.18793,-0.18664,-0.18216,-0.17596,-0.1766,-0.18112,-0.18378,-0.19166,-0.19928,-0.19571,-0.19343,-0.19941,-0.20082,-0.19783,-0.19956,-0.20374,-0.20727,-0.21181,-0.21623,-0.21782,-0.21717,-0.21703,-0.21755,-0.21712,-0.21686,-0.21941,-0.2245,-0.22868,-0.22969,-0.22906,-0.22913,-0.2295,-0.22897,-0.22901,-0.23198,-0.23709,-0.24098,-0.24196,-0.23999,-0.23557,-0.23344,-0.23769,-0.24128,-0.23766,-0.23385,-0.23535,-0.23909,-0.24379,-0.24737,-0.24743,-0.24709,-0.24721,-0.24692,-0.24774,-0.24692,-0.24617,-0.25064,-0.25318,-0.25246,-0.2569,-0.25874,-0.25391,-0.25325,-0.25214,-0.24731,-0.25214,-0.26143,-0.26012,-0.25442,-0.25308,-0.25325,-0.25304,-0.25324,-0.25326,-0.25302,-0.25327,-0.25326,-0.25291,-0.25346,-0.25322,-0.25256,-0.25414,-0.25294,-0.24789,-0.24863,-0.25365,-0.25388,-0.25244,-0.25339,-0.25343,-0.2528,-0.25332,-0.25333,-0.25287,-0.25334,-0.25336,-0.25269,-0.25356,-0.25365,-0.24978,-0.2465,-0.24705,-0.24754,-0.24694,-0.24719
